#"+EI TIC Scan MBPR048_01_LQ1.d "
#Point,X(Minutes),Y(Counts)
0,0.101,0.14278903743602
1,0.108,0.135600508204359
2,0.114,0.128672776537172
3,0.120,0.122517954015604
4,0.127,0.117320969821739
5,0.133,0.1128305099389
6,0.140,0.107325310441566
7,0.146,0.102517151707461
8,0.153,0.0982068792328037
9,0.159,0.0938017712801566
10,0.166,0.0899893850649486
11,0.172,0.0873719258724176
12,0.179,0.0865278901183044
13,0.185,0.0849868136009628
14,0.192,0.0820611391049636
15,0.198,0.079557482486021
16,0.205,0.0776180969611204
17,0.211,0.0764848129991369
18,0.218,0.0760248609308842
19,0.224,0.0754937822541388
20,0.230,0.074645004726126
21,0.237,0.0725823330798381
22,0.243,0.0699980663046038
23,0.250,0.0682341264139851
24,0.256,0.0677552072501344
25,0.263,0.0673663817903743
26,0.269,0.0669538474611167
27,0.276,0.0650239454840151
28,0.282,0.0632031043066023
29,0.289,0.0623685521002881
30,0.295,0.0623732938741876
31,0.302,0.0623732938741876
32,0.308,0.0628806636814355
33,0.315,0.0634828689666736
34,0.321,0.0628379877163399
35,0.327,0.0616051265024666
36,0.334,0.0616572860153613
37,0.340,0.0618848911625379
38,0.347,0.0612874276511993
39,0.353,0.0599170549942402
40,0.360,0.0592437231005094
41,0.366,0.0583380442857025
42,0.373,0.0580393125300332
43,0.379,0.0567163576120692
44,0.386,0.0559908662054438
45,0.392,0.056261147317716
46,0.399,0.0580630213995308
47,0.405,0.0576030693312781
48,0.412,0.0563654663435053
49,0.418,0.0560003497532428
50,0.425,0.0561900207092233
51,0.431,0.0552321823815218
52,0.437,0.0549903519126467
53,0.444,0.0552796001205169
54,0.450,0.0551420886774311
55,0.457,0.0550614785211394
56,0.463,0.0551088962601345
57,0.470,0.0549097417563549
58,0.476,0.053994579393749
59,0.483,0.0537574906987734
60,0.489,0.0545066909748964
61,0.496,0.0542553769582222
62,0.502,0.0538143919855676
63,0.509,0.0541652832541315
64,0.515,0.0550567367472398
65,0.522,0.0541842503497295
66,0.528,0.0530699334833441
67,0.534,0.052847070110067
68,0.541,0.0527380093103782
69,0.547,0.0513107353666249
70,0.554,0.0503244463955263
71,0.560,0.0496036967628004
72,0.567,0.0501632260829429
73,0.573,0.0510309707065537
74,0.580,0.0503434134911244
75,0.586,0.0495373119282073
76,0.593,0.050201160274139
77,0.599,0.051709044374184
78,0.606,0.0522970243377235
79,0.612,0.0519982925820543
80,0.619,0.0511827074713381
81,0.625,0.0516142088961937
82,0.632,0.052263831920427
83,0.638,0.0522543483726279
84,0.644,0.0516616266351889
85,0.651,0.0513676366534191
86,0.657,0.0513723784273186
87,0.664,0.0508270744288747
88,0.670,0.0501584843090434
89,0.677,0.0489161395473711
90,0.683,0.0485557647310082
91,0.690,0.0483992861923243
92,0.696,0.0491342611467487
93,0.703,0.0503244463955263
94,0.709,0.0516284342178923
95,0.716,0.0515098898704045
96,0.722,0.0500683906049527
97,0.729,0.0493144485549302
98,0.735,0.0494946359631117
99,0.741,0.0491437446945477
100,0.748,0.0489682990602658
101,0.754,0.0492859979115331
102,0.761,0.0497412082058863
103,0.767,0.0489872661558638
104,0.774,0.0496131803105995
105,0.780,0.049248063720337
106,0.787,0.0495183448326092
107,0.793,0.0507938820115781
108,0.800,0.0512965100449264
109,0.806,0.0505046338037078
110,0.813,0.049617922084499
111,0.819,0.0488734635822755
112,0.826,0.0485842153744052
113,0.832,0.0487786281042853
114,0.839,0.0487217268174911
115,0.845,0.0482001316885447
116,0.851,0.0479583012196696
117,0.858,0.0483423849055301
118,0.864,0.049617922084499
119,0.871,0.0501252918917468
120,0.877,0.0502912539782298
121,0.884,0.0504619578386122
122,0.890,0.0501774514046415
123,0.897,0.0510072618370561
124,0.903,0.0506279199250951
125,0.910,0.0488260458432804
126,0.916,0.0482238405580423
127,0.923,0.0480199442803633
128,0.929,0.048868721808376
129,0.936,0.0496558562756951
130,0.942,0.0490062332514619
131,0.948,0.0481479721756501
132,0.955,0.0476785365595984
133,0.961,0.0479203670284735
134,0.968,0.0483376431316306
135,0.974,0.0477733720375886
136,0.981,0.0473940301256276
137,0.987,0.0478397568721818
138,0.994,0.0488402711649789
139,1.000,0.0490773598599546
140,1.007,0.0490252003470599
141,1.013,0.0486980179479935
142,1.020,0.049053650990457
143,1.026,0.0488260458432804
144,1.033,0.0485130887659126
145,1.039,0.04737032125613
146,1.046,0.0467017311362988
147,1.052,0.0465974121105095
148,1.058,0.0473134199693359
149,1.065,0.047721212524694
150,1.071,0.0477022454290959
151,1.078,0.0472517769086422
152,1.084,0.0475884428555076
153,1.091,0.0480152025064637
154,1.097,0.0482997089404345
155,1.104,0.0488260458432804
156,1.110,0.0487549192347877
157,1.117,0.0494282511285185
158,1.123,0.0503291881694259
159,1.130,0.0510831302194483
160,1.136,0.0504477325169137
161,1.143,0.0494140258068199
162,1.149,0.0476500859162013
163,1.155,0.0459809815035729
164,1.162,0.0461896195551514
165,1.168,0.0476643112378998
166,1.175,0.048508346992013
167,1.181,0.0480009771847652
168,1.188,0.0466590551712032
169,1.194,0.0457628599041953
170,1.201,0.0451891052623543
171,1.207,0.0456443155567075
172,1.214,0.0461611689117544
173,1.220,0.0466875058146002
174,1.227,0.0462465208419456
175,1.233,0.0457770852258938
176,1.240,0.0454973205658226
177,1.246,0.0457107003913007
178,1.253,0.0459051131211807
179,1.259,0.0467586324230929
180,1.265,0.0476121517250052
181,1.272,0.0473892883517281
182,1.278,0.0462180701985485
183,1.285,0.0455921560438129
184,1.291,0.0454783534702246
185,1.298,0.0461943613290509
186,1.304,0.047526799794814
187,1.311,0.0473655794822305
188,1.317,0.0465168019542178
189,1.324,0.0465073184064188
190,1.330,0.0460426245642665
191,1.337,0.0461469435900558
192,1.343,0.0471853920740491
193,1.350,0.0487217268174911
194,1.356,0.0498075930404795
195,1.362,0.0495183448326092
196,1.369,0.0481479721756501
197,1.375,0.0468819185444803
198,1.382,0.0465357690498158
199,1.388,0.0470573641787622
200,1.395,0.0467538906491934
201,1.401,0.0464646424413232
202,1.408,0.0458007940953914
203,1.414,0.0452412647752489
204,1.421,0.0441885909695571
205,1.427,0.0448666646371874
206,1.434,0.0461801360073524
207,1.440,0.0467444071013944
208,1.447,0.0462939385809407
209,1.453,0.0465405108237154
210,1.460,0.0473323870649339
211,1.466,0.0469672704746715
212,1.472,0.0462654879375436
213,1.479,0.0465025766325193
214,1.485,0.0468202754837866
215,1.492,0.0456158649133104
216,1.498,0.0448619228632879
217,1.505,0.0449140823761826
218,1.511,0.0455874142699133
219,1.518,0.0469672704746715
220,1.524,0.0473134199693359
221,1.531,0.0471095236916569
222,1.537,0.0465215437281173
223,1.544,0.0459383055384773
224,1.550,0.0458150194170899
225,1.557,0.0455399965309182
226,1.563,0.0454356775051289
227,1.569,0.0452128141318519
228,1.576,0.0453835179922343
229,1.582,0.0460900423032617
230,1.589,0.0461943613290509
231,1.595,0.0451179786538616
232,1.602,0.0446817354551064
233,1.608,0.045464128148526
234,1.615,0.0457391510346977
235,1.621,0.0458814042516831
236,1.628,0.045445161052928
237,1.634,0.0446058670727143
238,1.641,0.0445631911076186
239,1.647,0.0447813127069962
240,1.654,0.0451701381667562
241,1.660,0.0447007025507045
242,1.667,0.0440415959786723
243,1.673,0.0448524393154889
244,1.679,0.0459525308601758
245,1.686,0.0470194299875661
246,1.692,0.0475078326992159
247,1.699,0.0474319643168237
248,1.705,0.0462560043897446
249,1.712,0.0450326267236704
250,1.718,0.0450184014019718
251,1.725,0.0453123913837416
252,1.731,0.0462465208419456
253,1.738,0.0467396653274949
254,1.744,0.0468155337098871
255,1.751,0.046232295520247
256,1.757,0.0463508398677349
257,1.764,0.0472517769086422
258,1.770,0.047147457882853
259,1.776,0.0462844550331417
260,1.783,0.0454167104095309
261,1.789,0.0452839407403445
262,1.796,0.0449757254368762
263,1.802,0.045269715418646
264,1.809,0.0463366145460363
265,1.815,0.046768115970892
266,1.822,0.0457154421652002
267,1.828,0.0449615001151777
268,1.835,0.0449520165673787
269,1.841,0.0457723434519943
270,1.848,0.0470905565960588
271,1.854,0.0479820100891672
272,1.861,0.0473466123866325
273,1.867,0.0462607461636441
274,1.874,0.0456775079740041
275,1.880,0.0457676016780948
276,1.886,0.0457107003913007
277,1.893,0.0450895280104645
278,1.899,0.0450610773670675
279,1.906,0.0452839407403445
280,1.912,0.0453692926705358
281,1.919,0.0448476975415894
282,1.925,0.0440510795264713
283,1.932,0.0435342261714244
284,1.938,0.0440795301698684
285,1.945,0.044686477229006
286,1.951,0.0447196696463025
287,1.958,0.045630090235009
288,1.964,0.0466211209800071
289,1.971,0.0472328098130442
290,1.977,0.0464930930847202
291,1.983,0.0465073184064188
292,1.990,0.0468914020922793
293,1.996,0.0465120601803183
294,2.003,0.0457628599041953
295,2.009,0.0443545530560401
296,2.016,0.044122206134964
297,2.022,0.0442644593519494
298,2.029,0.0453930015400333
299,2.035,0.0467728577447915
300,2.042,0.0476690530117993
301,2.048,0.0476074099511057
302,2.055,0.0465120601803183
303,2.061,0.045630090235009
304,2.068,0.045658540878406
305,2.074,0.0466543133973037
306,2.081,0.0467301817796959
307,2.087,0.0465737032410119
308,2.093,0.0463650651894334
309,2.100,0.0458387282865875
310,2.106,0.0447481202896996
311,2.113,0.0443118770909445
312,2.119,0.0451132368799621
313,2.126,0.0463603234155339
314,2.132,0.0467349235535954
315,2.139,0.0471806503001495
316,2.145,0.0462085866507495
317,2.152,0.0451938470362538
318,2.158,0.0447338949680011
319,2.165,0.0456253484611094
320,2.171,0.0460236574686685
321,2.178,0.0461706524595534
322,2.184,0.045852953608286
323,2.190,0.0452649736447465
324,2.197,0.0453029078359426
325,2.203,0.0460568498859651
326,2.210,0.0466969893623993
327,2.216,0.0460331410164675
328,2.223,0.0455399965309182
329,2.229,0.0461516853639553
330,2.236,0.0466448298495046
331,2.242,0.0462085866507495
332,2.249,0.0458102776431904
333,2.255,0.0454024850878324
334,2.262,0.0444493885340303
335,2.268,0.0450278849497709
336,2.275,0.0454167104095309
337,2.281,0.0463366145460363
338,2.288,0.0493998004851214
339,2.294,0.0588264469973523
340,2.300,0.0805200625876221
341,2.307,0.12119499909764
342,2.313,0.176868166451817
343,2.320,0.227462893959615
344,2.326,0.258881887817785
345,2.333,0.275928564986533
346,2.339,0.282946390357811
347,2.346,0.28228254201188
348,2.352,0.278460672248873
349,2.359,0.276905370409832
350,2.365,0.274420680886488
351,2.372,0.269043509284441
352,2.378,0.267516658088798
353,2.385,0.268052478539443
354,2.391,0.264140515072345
355,2.397,0.259180619573455
356,2.404,0.257193816309559
357,2.410,0.25416382278777
358,2.417,0.248004258492304
359,2.423,0.243888398747527
360,2.430,0.242608119794658
361,2.436,0.238079725720624
362,2.443,0.234253114183717
363,2.449,0.231427016939608
364,2.456,0.225220034905146
365,2.462,0.220004083615682
366,2.469,0.216272307556766
367,2.475,0.212526306176151
368,2.482,0.206423643167478
369,2.488,0.203256138202604
370,2.495,0.202815153229949
371,2.501,0.200942152539642
372,2.507,0.199633422943376
373,2.514,0.199363141831104
374,2.520,0.197286244863118
375,2.527,0.192776817884681
376,2.533,0.18880321135689
377,2.540,0.184284300830654
378,2.546,0.178565721507842
379,2.553,0.175924553445814
380,2.559,0.175322348160576
381,2.566,0.172548410429361
382,2.572,0.169167525639009
383,2.579,0.16711433754052
384,2.585,0.164041668053636
385,2.592,0.159712428483381
386,2.598,0.157346283307524
387,2.604,0.154226196081645
388,2.611,0.151395357063636
389,2.617,0.148213626777063
390,2.624,0.147507102466035
391,2.630,0.145837998053407
392,2.637,0.142509272775949
393,2.643,0.140299606138776
394,2.650,0.137174777138998
395,2.656,0.132812345151446
396,2.663,0.131750187797955
397,2.669,0.132077370197022
398,2.676,0.130294463210805
399,2.682,0.127416206453801
400,2.689,0.126102735083636
401,2.695,0.125301375294618
402,2.702,0.123181802361536
403,2.708,0.121906265182567
404,2.714,0.120957910402665
405,2.721,0.119497444041615
406,2.727,0.117667119316403
407,2.734,0.11487421448959
408,2.740,0.112422717383542
409,2.747,0.11049755718034
410,2.753,0.110265210259264
411,2.760,0.110089764624982
412,2.766,0.10767620171013
413,2.773,0.106405406305061
414,2.779,0.107055029329294
415,2.786,0.106471791139654
416,2.792,0.104631982866643
417,2.799,0.103275835531383
418,2.805,0.10193865529172
419,2.811,0.100340677487584
420,2.818,0.0992405859428975
421,2.824,0.0980409171463208
422,2.831,0.095646321327067
423,2.837,0.094147920774821
424,2.844,0.0943186246352035
425,2.850,0.0945841639735762
426,2.857,0.0943043993135049
427,2.863,0.0940436017490318
428,2.870,0.0934366546898941
429,2.876,0.0919904136505428
430,2.883,0.0906484916369808
431,2.889,0.0897760052394705
432,2.896,0.0879930982532538
433,2.902,0.0862149330409366
434,2.909,0.0855937606601005
435,2.915,0.0852333858437375
436,2.921,0.0845600539500067
437,2.928,0.0843608994462272
438,2.934,0.0838914638301755
439,2.941,0.0814731591414241
440,2.947,0.0796760268335088
441,2.954,0.0800221763281732
442,2.960,0.0801027864844649
443,2.967,0.078428940297937
444,2.973,0.0773667829444462
445,2.980,0.077300398109853
446,2.986,0.076726643468012
447,2.993,0.0760011520613866
448,2.999,0.0757925140098081
449,3.006,0.0750812479248812
450,3.012,0.0738483867110079
451,3.018,0.0740759918581845
452,3.025,0.0736444904333289
453,3.031,0.0725112064713454
454,3.038,0.0717003631345288
455,3.044,0.072155573428882
456,3.051,0.0711266084926878
457,3.057,0.0705338867552487
458,3.064,0.0711929933272809
459,3.070,0.0709416793106068
460,3.077,0.0689880684640076
461,3.083,0.0683384454397744
462,3.090,0.0686229518737451
463,3.096,0.0682862859268798
464,3.103,0.0679401364322153
465,3.109,0.0684522480133627
466,3.116,0.0700454840435989
467,3.122,0.072340502610963
468,3.128,0.0761386635044725
469,3.135,0.0788177657576971
470,3.141,0.0808425032127889
471,3.148,0.0830142356587656
472,3.154,0.0845932463673033
473,3.161,0.0844462513764184
474,3.167,0.0838013701260847
475,3.174,0.0842423550987394
476,3.180,0.0843656412201267
477,3.187,0.08238832150403
478,3.193,0.0793061684693468
479,3.200,0.0772434968230589
480,3.206,0.0764373952601418
481,3.213,0.0760438280264822
482,3.219,0.0767219016941125
483,3.225,0.0772292715013604
484,3.232,0.0771154689277721
485,3.238,0.0795622242599205
486,3.245,0.0842992563855335
487,3.251,0.0890837062501417
488,3.258,0.0938349636974532
489,3.264,0.0972442991312027
490,3.271,0.0970166939840261
491,3.277,0.0950867920069245
492,3.284,0.0947501260600591
493,3.290,0.0946410652603703
494,3.297,0.0930241203606366
495,3.303,0.0901837977948286
496,3.310,0.0883914072608128
497,3.316,0.087903004549163
498,3.323,0.0877892019755747
499,3.329,0.088087933731244
500,3.335,0.087523662637202
501,3.342,0.0857502391987844
502,3.348,0.0842470968726389
503,3.355,0.083350901605631
504,3.361,0.0811886527074533
505,3.368,0.0794057457212366
506,3.374,0.0793678115300405
507,3.381,0.0804204853357323
508,3.387,0.0836448915874008
509,3.394,0.0905536561589905
510,3.400,0.0992500694906965
511,3.407,0.105167803317288
512,3.413,0.107590849779939
513,3.420,0.107012353364198
514,3.426,0.10515357799559
515,3.432,0.102668888472245
516,3.439,0.101573538701458
517,3.445,0.100226874913996
518,3.452,0.0977658942601491
519,3.458,0.0962864608035012
520,3.465,0.0955277769795792
521,3.471,0.0947785767034562
522,3.478,0.0946268399386718
523,3.484,0.0954234579537899
524,3.491,0.0955467440751772
525,3.497,0.094323366409103
526,3.504,0.0932659508295117
527,3.510,0.0927159050571682
528,3.517,0.0922559529889155
529,3.523,0.0911937956354247
530,3.530,0.0900699952212403
531,3.536,0.089401405101409
532,3.542,0.088837134007367
533,3.549,0.0874525360287094
534,3.555,0.0861295811107454
535,3.562,0.0851148414962497
536,3.568,0.0849062034446711
537,3.575,0.0835500561094105
538,3.581,0.0822318429653461
539,3.588,0.0817434402536963
540,3.594,0.0813451312461372
541,3.601,0.0805769638744162
542,3.607,0.0792540089564522
543,3.614,0.0785474846454248
544,3.620,0.0789979531658785
545,3.627,0.0800838193888669
546,3.633,0.0818193086360885
547,3.639,0.0842328715509403
548,3.646,0.0870589687950498
549,3.652,0.0889841289982519
550,3.659,0.0903070839162159
551,3.665,0.0899704179693505
552,3.672,0.0891832835020314
553,3.678,0.0894535646143036
554,3.685,0.0903307927857134
555,3.691,0.090928256297052
556,3.698,0.0936215838719751
557,3.704,0.0987142490400516
558,3.711,0.103934942103415
559,3.717,0.109117700975582
560,3.724,0.116016981999373
561,3.730,0.125747102041172
562,3.737,0.136634214914453
563,3.743,0.147682548100317
564,3.749,0.15767346570659
565,3.756,0.163614908402679
566,3.762,0.164809835425357
567,3.769,0.163937349027846
568,3.775,0.162012188824644
569,3.782,0.159005904172353
570,3.788,0.158522243234603
571,3.795,0.160418952794408
572,3.801,0.161457401278401
573,3.808,0.161703973521176
574,3.814,0.163183406977824
575,3.821,0.164591713825979
576,3.827,0.163567490663684
577,3.834,0.161722940616774
578,3.840,0.160025385560748
579,3.846,0.15864552935599
580,3.853,0.157825202471375
581,3.859,0.15718980476884
582,3.866,0.15611816386755
583,3.872,0.154828401366883
584,3.879,0.154193003664348
585,3.885,0.15213507379196
586,3.892,0.148958085279286
587,3.898,0.148052406464479
588,3.905,0.148512358532732
589,3.911,0.148009730499384
590,3.918,0.148702029488713
591,3.924,0.15057028840512
592,3.931,0.150684090978709
593,3.937,0.148768414323306
594,3.944,0.148469682567636
595,3.950,0.147720482291513
596,3.956,0.145359078889556
597,3.963,0.142860164044513
598,3.969,0.141361763492267
599,3.976,0.139540922314854
600,3.982,0.138274868683685
601,3.989,0.137601536789954
602,3.995,0.13627384009809
603,4.002,0.13452412552917
604,4.008,0.133917178470033
605,4.015,0.134490933111874
606,4.021,0.134163750712807
607,4.028,0.134320229251491
608,4.034,0.134462482468476
609,4.041,0.133480935271277
610,4.047,0.132115304388218
611,4.053,0.133149011098311
612,4.060,0.135088396623212
613,4.066,0.135557832239264
614,4.073,0.135818629803737
615,4.079,0.136638956688353
616,4.086,0.136335483158784
617,4.092,0.12557639818079
618,4.099,0.0909946411316452
619,4.105,0.0412060151867638
620,4.112,0.00818904352445812
621,4.118,0
622,4.125,0
623,4.131,0
624,4.138,0
625,4.144,0
626,4.151,0
627,4.157,0
628,4.163,0
629,4.170,0
630,4.176,0
631,4.183,0
632,4.189,0
633,4.196,0
634,4.202,0
635,4.209,0
636,4.215,0
637,4.222,0
638,4.228,0
639,4.235,0
640,4.241,0
641,4.248,0
642,4.254,0
643,4.260,0
644,4.267,0
645,4.273,0
646,4.280,0
647,4.286,0
648,4.293,0
649,4.299,0
650,4.306,0
651,4.312,0
652,4.319,0
653,4.325,0
654,4.332,0
655,4.338,0
656,4.345,0
657,4.351,0
658,4.358,0
659,4.364,0
660,4.370,0
661,4.377,0
662,4.383,0
663,4.390,0
664,4.396,0
665,4.403,0
666,4.409,0
667,4.416,0
668,4.422,0
669,4.429,0
670,4.435,0
671,4.442,0
672,4.448,0
673,4.455,0
674,4.461,0
675,4.467,0
676,4.474,0
677,4.480,0
678,4.487,0
679,4.493,0
680,4.500,0
681,4.506,0
682,4.513,0
683,4.519,0
684,4.526,0
685,4.532,0
686,4.539,0
687,4.545,0
688,4.552,0
689,4.558,0
690,4.565,0
691,4.571,0
692,4.577,0
693,4.584,0
694,4.590,0
695,4.597,0
696,4.603,0
697,4.610,0
698,4.616,0
699,4.623,0
700,4.629,0
701,4.636,0
702,4.642,0
703,4.649,0
704,4.655,0
705,4.662,0
706,4.668,0
707,4.674,0
708,4.681,0
709,4.687,0
710,4.694,0
711,4.700,0
712,4.707,0
713,4.713,0
714,4.720,0
715,4.726,0
716,4.733,0
717,4.739,0
718,4.746,0
719,4.752,0
720,4.759,0
721,4.765,0
722,4.772,0
723,4.778,0
724,4.784,0
725,4.791,0
726,4.797,0
727,4.804,0
728,4.810,0
729,4.817,0
730,4.823,0
731,4.830,0
732,4.836,0
733,4.843,0
734,4.849,0
735,4.856,0
736,4.862,0
737,4.869,0
738,4.875,0
739,4.881,0
740,4.888,0
741,4.894,0
742,4.901,0
743,4.907,0
744,4.914,0
745,4.920,0
746,4.927,0
