#"+EI TIC Scan LOHC009_01_LQ1.d "
#Point,X(Minutes),Y(Counts)
0,0.101,0.0703032409171385
1,0.108,0.0686823029851252
2,0.114,0.0687712568960284
3,0.121,0.0690875374681286
4,0.127,0.068889862110566
5,0.134,0.0685241626990751
6,0.140,0.0689392809499566
7,0.147,0.0693346316650818
8,0.153,0.069729982380207
9,0.159,0.0695619583262788
10,0.166,0.0694038180402287
11,0.172,0.066992178677965
12,0.179,0.0680200905372905
13,0.185,0.069423585575985
14,0.192,0.0686131166099783
15,0.198,0.0677334612688247
16,0.205,0.0676840424294341
17,0.211,0.0676840424294341
18,0.218,0.0682671847342438
19,0.224,0.0686427679136127
20,0.231,0.0694730044153756
21,0.237,0.0699770765771602
22,0.244,0.0687613731281503
23,0.250,0.0699671928092821
24,0.257,0.0709951046686076
25,0.263,0.0718648762418831
26,0.269,0.0714201066873672
27,0.276,0.0702735896135042
28,0.282,0.069957309041404
29,0.289,0.0714892930625141
30,0.295,0.0717956898667362
31,0.302,0.0709358020613389
32,0.308,0.0695718420941569
33,0.315,0.0688602108069316
34,0.321,0.0709061507577045
35,0.328,0.072616042600621
36,0.334,0.0731201147624056
37,0.341,0.0728334854939398
38,0.347,0.0727346478151585
39,0.354,0.0709061507577045
40,0.360,0.0691369563075192
41,0.366,0.0695224232547663
42,0.373,0.0726852289757679
43,0.379,0.0740096538714373
44,0.386,0.0733276738878463
45,0.392,0.0713904553837328
46,0.399,0.0705009162747011
47,0.405,0.0719439463849081
48,0.412,0.0727642991187929
49,0.418,0.0731596498339181
50,0.425,0.0720823191352019
51,0.431,0.0720329002958113
52,0.438,0.0716672008843205
53,0.444,0.0727445315830366
54,0.451,0.0730212770836243
55,0.457,0.0704712649710668
56,0.464,0.070491032506823
57,0.470,0.0697497499159633
58,0.476,0.0693840505044725
59,0.483,0.0711927800261702
60,0.489,0.073377092727237
61,0.496,0.0749584955877378
62,0.502,0.0740887240144623
63,0.509,0.0720823191352019
64,0.515,0.0711235936510233
65,0.522,0.0722602269570083
66,0.528,0.0727148802794023
67,0.535,0.073377092727237
68,0.541,0.0704811487389449
69,0.548,0.0702340545419916
70,0.554,0.0716573171164424
71,0.561,0.0739009324247779
72,0.567,0.073762559674484
73,0.573,0.0725666237612303
74,0.580,0.0713410365443422
75,0.586,0.0707776617752888
76,0.593,0.0702142870062354
77,0.599,0.0720922029030801
78,0.606,0.072467786082449
79,0.612,0.0727346478151585
80,0.619,0.0723195295642771
81,0.625,0.0741974454611218
82,0.632,0.0742962831399031
83,0.638,0.0729718582442336
84,0.645,0.0730410446193805
85,0.651,0.0735747680847996
86,0.658,0.072388715939424
87,0.664,0.0725962750648647
88,0.671,0.0731893011375525
89,0.677,0.0740096538714373
90,0.683,0.0747212851586627
91,0.690,0.0754230326780099
92,0.696,0.0733375576557244
93,0.703,0.0715584794376611
94,0.709,0.0722206918854958
95,0.716,0.0741677941574874
96,0.722,0.0742666318362687
97,0.729,0.0733177901199682
98,0.735,0.0738515135853872
99,0.742,0.076500363376726
100,0.748,0.0776864155221016
101,0.755,0.076727690037923
102,0.761,0.0726852289757679
103,0.768,0.0711433611867796
104,0.774,0.0736340706920683
105,0.780,0.07558117296406
106,0.787,0.0750474494986409
107,0.793,0.0730311608515024
108,0.800,0.0736637219957027
109,0.806,0.0735648843169214
110,0.813,0.0719142950812737
111,0.819,0.0720724353673238
112,0.826,0.0721119704388363
113,0.832,0.0713015014728297
114,0.839,0.0711038261152671
115,0.845,0.0703921948280417
116,0.852,0.0709753371328514
117,0.858,0.0725073211539615
118,0.865,0.0751166358737878
119,0.871,0.0757689645537444
120,0.878,0.0742073292289999
121,0.884,0.0734759304060183
122,0.890,0.0739009324247779
123,0.897,0.0752352410883254
124,0.903,0.0745730286404907
125,0.910,0.0747212851586627
126,0.916,0.0745334935689782
127,0.923,0.0737427921387278
128,0.929,0.0759073373040382
129,0.936,0.0762137341082603
130,0.942,0.0774294375572703
131,0.949,0.0770933894494138
132,0.955,0.0762532691797728
133,0.962,0.0743259344435375
134,0.968,0.0735451167811652
135,0.975,0.0742765156041468
136,0.981,0.0731893011375525
137,0.987,0.0714398742231235
138,0.994,0.0720032489921769
139,1.000,0.0745730286404907
140,1.007,0.0749387280519815
141,1.013,0.0748695416768346
142,1.020,0.0745236098011001
143,1.026,0.0730113933157462
144,1.033,0.0716869684200767
145,1.039,0.0711433611867796
146,1.046,0.0723689484036677
147,1.052,0.0734363953345057
148,1.059,0.0742863993720249
149,1.065,0.0762236178761384
150,1.072,0.0761445477331134
151,1.078,0.0764015256979447
152,1.085,0.0767869926451918
153,1.091,0.0770637381457795
154,1.097,0.0776864155221016
155,1.104,0.0772317621997077
156,1.110,0.0763817581621885
157,1.117,0.0737724434423622
158,1.123,0.0732584875126994
159,1.130,0.0734067440308714
160,1.136,0.0729422069405992
161,1.143,0.0719735976885425
162,1.149,0.0734858141738964
163,1.156,0.075432916445888
164,1.162,0.0751166358737878
165,1.169,0.0751462871774222
166,1.175,0.0759073373040382
167,1.182,0.0762038503403821
168,1.188,0.0753044274634723
169,1.194,0.07436546951505
170,1.201,0.0756305918034506
171,1.207,0.0775183914681734
172,1.214,0.076875946556095
173,1.220,0.0746619825513939
174,1.227,0.0729718582442336
175,1.233,0.0729422069405992
176,1.240,0.0727642991187929
177,1.246,0.0738317460496309
178,1.253,0.0745433773368563
179,1.259,0.0751166358737878
180,1.266,0.0752945436955942
181,1.272,0.0751462871774222
182,1.279,0.0753933813743755
183,1.285,0.0760753613579665
184,1.292,0.077943393486933
185,1.298,0.0814027122442785
186,1.304,0.0850004037519178
187,1.311,0.0821934136745289
188,1.317,0.077636996682711
189,1.324,0.0747311689265408
190,1.330,0.0752648923919598
191,1.337,0.0773503674142452
192,1.343,0.0778544395760298
193,1.350,0.0784968844881083
194,1.356,0.0779137421832986
195,1.363,0.0751561709453004
196,1.369,0.0753439625349848
197,1.376,0.0759765236791852
198,1.382,0.0751166358737878
199,1.389,0.0751858222489348
200,1.395,0.0767968764130699
201,1.401,0.0777061830578579
202,1.408,0.0768067601809481
203,1.414,0.074444539658075
204,1.421,0.0736439544599465
205,1.427,0.0749387280519815
206,1.434,0.0769154816276075
207,1.440,0.0774986239324172
208,1.447,0.0745730286404907
209,1.453,0.0753044274634723
210,1.460,0.0782201389875207
211,1.466,0.0792183995432118
212,1.473,0.0777358343614923
213,1.479,0.076727690037923
214,1.486,0.0762730367155291
215,1.492,0.0760061749828195
216,1.499,0.0745236098011001
217,1.505,0.0755021028210349
218,1.511,0.0770044355385107
219,1.518,0.0764707120730917
220,1.524,0.077409670021514
221,1.531,0.0787242111493053
222,1.537,0.0782300227553988
223,1.544,0.0776172291469547
224,1.550,0.075660243107085
225,1.557,0.0764707120730917
226,1.563,0.0767771088773137
227,1.570,0.0788625838995991
228,1.576,0.0797125879371183
229,1.583,0.0804143354564655
230,1.589,0.0794160749007744
231,1.596,0.0795840989547026
232,1.602,0.0788032812923303
233,1.608,0.078852700131721
234,1.615,0.079159096935943
235,1.621,0.0813335258691316
236,1.628,0.0813236421012535
237,1.634,0.079159096935943
238,1.641,0.0766189685912636
239,1.647,0.0755712891961818
240,1.654,0.0754131489101317
241,1.660,0.0747114013907845
242,1.667,0.0719834814564206
243,1.673,0.0729520907084774
244,1.680,0.0728334854939398
245,1.686,0.0744346558901969
246,1.693,0.0756503593392069
247,1.699,0.0754724515174005
248,1.706,0.0752352410883254
249,1.712,0.0770538543779013
250,1.718,0.0797027041692401
251,1.725,0.0796038664904588
252,1.731,0.0780521149335924
253,1.738,0.077716066825736
254,1.744,0.0772119946639514
255,1.751,0.0765102471446042
256,1.757,0.0759073373040382
257,1.764,0.0770835056815357
258,1.770,0.0784968844881083
259,1.777,0.0808195699394688
260,1.783,0.0795742151868245
261,1.790,0.0774689726287828
262,1.796,0.0763521068585541
263,1.803,0.0751067521059097
264,1.809,0.0761643152688696
265,1.815,0.0774689726287828
266,1.822,0.0786154897026459
267,1.828,0.0776468804505891
268,1.835,0.0760555938222102
269,1.841,0.0763817581621885
270,1.848,0.0767573413415574
271,1.854,0.0774986239324172
272,1.861,0.076569549751873
273,1.867,0.0763619906264322
274,1.874,0.0770439706100232
275,1.880,0.0775183914681734
276,1.887,0.0758183833931351
277,1.893,0.0765992010555073
278,1.900,0.0779335097190549
279,1.906,0.0786154897026459
280,1.912,0.0779038584154205
281,1.919,0.0758282671610132
282,1.925,0.0749980306592503
283,1.932,0.0757788483216226
284,1.938,0.077182343360317
285,1.945,0.0755515216604256
286,1.951,0.0783782792735707
287,1.958,0.0783585117378145
288,1.964,0.0774492050930265
289,1.971,0.0760358262864539
290,1.977,0.076193966572504
291,1.984,0.0771131569851701
292,1.990,0.0778247882723955
293,1.997,0.0787933975244522
294,2.003,0.0803550328491967
295,2.010,0.0815509687624505
296,2.016,0.0815608525303286
297,2.022,0.0830533014799262
298,2.029,0.0830038826405356
299,2.035,0.0829346962653887
300,2.042,0.0815312012266942
301,2.048,0.0798904957589246
302,2.055,0.0802166600989029
303,2.061,0.0799893334377059
304,2.068,0.0790503754892836
305,2.074,0.0781608363802519
306,2.081,0.0781806039160081
307,2.087,0.0765102471446042
308,2.094,0.0763224555549197
309,2.100,0.0774689726287828
310,2.107,0.0790009566498929
311,2.113,0.0789021189711116
312,2.119,0.0788329325959647
313,2.126,0.0764410607694573
314,2.132,0.0764311770015791
315,2.139,0.0751957060168129
316,2.145,0.0757294294822319
317,2.152,0.0772811810390983
318,2.158,0.0755416378925474
319,2.165,0.0752846599277161
320,2.171,0.0754724515174005
321,2.178,0.077330599878489
322,2.184,0.0785957221668896
323,2.191,0.0789811891141367
324,2.197,0.0787637462208178
325,2.204,0.0798806119910465
326,2.210,0.0799300308304371
327,2.217,0.0804736380637343
328,2.223,0.0798213093837777
329,2.229,0.0805823595103937
330,2.236,0.0808096861715907
331,2.242,0.0817585278878912
332,2.249,0.08562308112824
333,2.255,0.10084408366056
334,2.262,0.1356250628237
335,2.268,0.198100359581359
336,2.275,0.282092619009708
337,2.281,0.365373247150831
338,2.288,0.425377601938958
339,2.294,0.455799839467842
340,2.301,0.471505146626191
341,2.307,0.475824353188933
342,2.314,0.473679575559379
343,2.320,0.467907455118551
344,2.326,0.463825458984884
345,2.333,0.459081250403381
346,2.339,0.455068440644861
347,2.346,0.450966676975437
348,2.352,0.443158500351714
349,2.359,0.434223574189884
350,2.365,0.432197401774868
351,2.372,0.436328816747926
352,2.378,0.450937025671802
353,2.385,0.484146485742319
354,2.391,0.558640444239785
355,2.398,0.614444197679706
356,2.404,0.503666927301626
357,2.411,0.249436649940366
358,2.417,0.0538467674000521
359,2.424,0
360,2.430,0
361,2.436,0
362,2.443,0
363,2.449,0
364,2.456,0
365,2.462,0
366,2.469,0
367,2.475,0
368,2.482,0
369,2.488,0
370,2.495,0
371,2.501,0
372,2.508,0
373,2.514,0
374,2.521,0
375,2.527,0
376,2.533,0
377,2.540,0
378,2.546,0
379,2.553,0
380,2.559,0
381,2.566,0
382,2.572,0
383,2.579,0
384,2.585,0
385,2.592,0
386,2.598,0
387,2.605,0
388,2.611,0
389,2.618,0
390,2.624,0
391,2.631,0
392,2.637,0
393,2.643,0
394,2.650,0
395,2.656,0
396,2.663,0
397,2.669,0
398,2.676,0
399,2.682,0
400,2.689,0
401,2.695,0
402,2.702,0
403,2.708,0
404,2.715,0
405,2.721,0
406,2.728,0
407,2.734,0
408,2.740,0
409,2.747,0
410,2.753,0
411,2.760,0
412,2.766,0
413,2.773,0
414,2.779,0
415,2.786,0
416,2.792,0
417,2.799,0
418,2.805,0
419,2.812,0
420,2.818,0
421,2.825,0
422,2.831,0
423,2.838,0
424,2.844,0
425,2.850,0
426,2.857,0
427,2.863,0
428,2.870,0
429,2.876,0
430,2.883,0
431,2.889,0
432,2.896,0
433,2.902,0
434,2.909,0
435,2.915,0
436,2.922,0
437,2.928,0
438,2.935,0
439,2.941,0
440,2.947,0
441,2.954,0
442,2.960,0
443,2.967,0
444,2.973,0
445,2.980,0
446,2.986,0
447,2.993,0
448,2.999,0
449,3.006,0
450,3.012,0
451,3.019,0
452,3.025,0
453,3.032,0
454,3.038,0
455,3.045,0
456,3.051,0
457,3.057,0
458,3.064,0
459,3.070,0
460,3.077,0
461,3.083,0
462,3.090,0
463,3.096,0
464,3.103,0
465,3.109,0
466,3.116,0
467,3.122,0
468,3.129,0
469,3.135,0
470,3.142,0
471,3.148,0
472,3.154,0
473,3.161,0
474,3.167,0
475,3.174,0
476,3.180,0
477,3.187,0
478,3.193,0
479,3.200,0
480,3.206,0
481,3.213,0
482,3.219,0
483,3.226,0
484,3.232,0
485,3.239,0
486,3.245,0
487,3.252,0
488,3.258,0
489,3.264,0
490,3.271,0
491,3.277,0
492,3.284,0
493,3.290,0
494,3.297,0
495,3.303,0
496,3.310,0
497,3.316,0
498,3.323,0
499,3.329,0
500,3.336,0
501,3.342,0
502,3.349,0
503,3.355,0
504,3.361,0
505,3.368,0
506,3.374,0
507,3.381,0
508,3.387,0
509,3.394,0
510,3.400,0
511,3.407,0
512,3.413,0
513,3.420,0
514,3.426,0
515,3.433,0
516,3.439,0
517,3.446,0
518,3.452,0
519,3.459,0
520,3.465,0
521,3.471,0
522,3.478,0
523,3.484,0
524,3.491,0
525,3.497,0
526,3.504,0
527,3.510,0
528,3.517,0
529,3.523,0
530,3.530,0
531,3.536,0
532,3.543,0
533,3.549,0
534,3.556,0
535,3.562,0
536,3.568,0
537,3.575,0
538,3.581,0
539,3.588,0
540,3.594,0
541,3.601,0
542,3.607,0
543,3.614,0
544,3.620,0
545,3.627,0
546,3.633,0
547,3.640,0
548,3.646,0
549,3.653,0
550,3.659,0
551,3.666,0
552,3.672,0
553,3.678,0
554,3.685,0
555,3.691,0
556,3.698,0
557,3.704,0
558,3.711,0
559,3.717,0
560,3.724,0
561,3.730,0
562,3.737,0
563,3.743,0
564,3.750,0
565,3.756,0
566,3.763,0
567,3.769,0
568,3.775,0
569,3.782,0
570,3.788,0
571,3.795,0
572,3.801,0
573,3.808,0
574,3.814,0
575,3.821,0
576,3.827,0
577,3.834,0
578,3.840,0
579,3.847,0
580,3.853,0
581,3.860,0
582,3.866,0
583,3.873,0
584,3.879,0
585,3.885,0
586,3.892,0
587,3.898,0
588,3.905,0
589,3.911,0
590,3.918,0
591,3.924,0
592,3.931,0
593,3.937,0
594,3.944,0
595,3.950,0
596,3.957,0
597,3.963,0
598,3.970,0
599,3.976,0
600,3.982,0
601,3.989,0
602,3.995,0
603,4.002,0
604,4.008,0
605,4.015,0
606,4.021,0
607,4.028,0
608,4.034,0
609,4.041,0
610,4.047,0
611,4.054,0
612,4.060,0
613,4.067,0
614,4.073,0
615,4.080,0
616,4.086,0
617,4.092,0
618,4.099,0
619,4.105,0
620,4.112,0
621,4.118,0
622,4.125,0
623,4.131,0
624,4.138,0
625,4.144,0
626,4.151,0
627,4.157,0
628,4.164,0
629,4.170,0
630,4.177,0
631,4.183,0
632,4.189,0
633,4.196,0
634,4.202,0
635,4.209,0
636,4.215,0
637,4.222,0
638,4.228,0
639,4.235,0
640,4.241,0
641,4.248,0
642,4.254,0
643,4.261,0
644,4.267,0
645,4.274,0
646,4.280,0
647,4.287,0
648,4.293,0
649,4.299,0
650,4.306,0
651,4.312,0
652,4.319,0
653,4.325,0
654,4.332,0
655,4.338,0
656,4.345,0
657,4.351,0
658,4.358,0
659,4.364,0
660,4.371,0
661,4.377,0
662,4.384,0
663,4.390,0
664,4.396,0
665,4.403,0
666,4.409,0.0581560901949168
667,4.416,0.341711506850588
668,4.422,0.935745723861956
669,4.429,2.42436965529075
670,4.435,4.49349692550575
671,4.442,5.92230429373609
672,4.448,6.17113803383589
673,4.455,6.00022791968727
674,4.461,5.83502073960433
675,4.468,5.66247980375581
676,4.474,5.4923307397338
677,4.481,5.31625141498492
678,4.487,5.11963362058528
679,4.494,4.92050534914459
680,4.500,4.73741843297011
681,4.506,4.57935721706306
682,4.513,4.44311936063092
683,4.519,4.31593503557514
684,4.526,4.18292917123915
685,4.532,4.05374832507199
686,4.539,3.93887917479236
687,4.545,3.84071359222677
688,4.552,3.74627419015124
689,4.558,3.65397956570526
690,4.565,3.56186284908109
691,4.571,3.48543167207951
692,4.578,3.43137734555402
693,4.584,3.36914914299331
694,4.591,3.26893762047695
695,4.597,3.16480224211298
696,4.603,3.09845250834709
697,4.610,3.02741786860697
698,4.616,2.93485638242828
699,4.623,2.86257638793552
700,4.629,2.80773135997977
701,4.636,2.72962982620679
702,4.642,2.64547942649239
703,4.649,2.5857320496691
704,4.655,2.52198174685516
705,4.662,2.44244706673985
706,4.668,2.37710547729753
707,4.675,2.31599414050705
708,4.681,2.24178681127805
709,4.688,2.18541968306908
710,4.694,2.14928462770663
711,4.701,2.09632739941561
712,4.707,2.03668874403898
713,4.713,2.00186822980432
714,4.720,1.96741341498116
715,4.726,1.90713231469245
716,4.733,1.85225763543307
717,4.739,1.81555920530157
718,4.746,1.76680257835876
719,4.752,1.71200696924241
720,4.759,1.6763067996666
721,4.765,1.63880778433698
722,4.772,1.588361033087
723,4.778,1.54948817402231
724,4.785,1.52022233733517
725,4.791,1.48257506548738
726,4.798,1.4489406033981
727,4.804,1.4274730595668
728,4.810,1.39696186812701
729,4.817,1.35828668441989
730,4.823,1.32711328053227
731,4.830,1.29677011314641
732,4.836,1.25849028015441
733,4.843,1.22804827508977
734,4.849,1.20635340459728
735,4.856,1.18378876253151
736,4.862,1.15930666949738
737,4.869,1.14147635224523
738,4.875,1.11673728124627
739,4.882,1.0827371197455
740,4.888,1.05694048558359
741,4.895,1.0358287573959
742,4.901,1.01140596696904
743,4.908,0.988880859974783
744,4.914,0.978749997899699
745,4.920,0.959150486197368
746,4.927,0.932681755819736
747,4.933,0.911708400382344
748,4.940,0.89788100912084
749,4.946,0.879418130724493
750,4.953,0.861063973774806
751,4.959,0.84661390513698
752,4.966,0.833755123127533
753,4.972,0.827459162989164
754,4.979,0.82763707081097
755,4.985,0.817466673664374
756,4.992,0.794328773061672
757,4.998,0.770815289279601
758,5.005,0.752935553188064
759,5.011,0.738287809192675
760,5.017,0.725448794718984
761,5.024,0.716088866538395
762,5.030,0.704376601602811
763,5.037,0.689284088052907
764,5.043,0.679400320174777
765,5.050,0.667480496113752
766,5.056,0.64967983016524
767,5.063,0.638066402908437
768,5.069,0.633994290542648
769,5.076,0.62520762089899
770,5.082,0.61347558842765
771,5.089,0.606102297590565
772,5.095,0.597790048805057
773,5.102,0.579920196481398
774,5.108,0.56833642052823
775,5.115,0.56030091724331
776,5.121,0.547580507984157
777,5.127,0.535976964495233
778,5.134,0.531776363147027
779,5.140,0.526597268778887
780,5.147,0.517958855653402
781,5.153,0.508361717043737
782,5.160,0.500879704759993
783,5.166,0.491608730490307
784,5.173,0.483761018795072
785,5.179,0.478997042677813
786,5.186,0.470437699695353
787,5.192,0.459476601118506
788,5.199,0.450937025671802
789,5.205,0.446943983449038
790,5.212,0.444463157711627
791,5.218,0.441300351990625
792,5.224,0.434796832726816
793,5.231,0.421621770145269
794,5.237,0.410631020264788
795,5.244,0.405155412860304
796,5.250,0.397446073915363
797,5.257,0.386475091570638
798,5.263,0.382195420079408
799,5.270,0.383361704689028
800,5.276,0.377965167427569
801,5.283,0.369376173141474
802,5.289,0.365215106864781
803,5.296,0.364730802238752
804,5.302,0.363040677931592
805,5.309,0.361113343195357
806,5.315,0.357594721830743
807,5.322,0.353947611483713
808,5.328,0.350300501136683
809,5.334,0.348511539150741
810,5.341,0.339378937631349
811,5.347,0.329722496414416
812,5.354,0.324009678580857
813,5.360,0.319433494053283
814,5.367,0.314916612132977
815,5.373,0.311575898590169
816,5.380,0.30692064391957
817,5.386,0.301820619694455
818,5.393,0.300278751905467
819,5.399,0.303243882268906
820,5.406,0.304934006576066
821,5.412,0.301820619694455
822,5.419,0.296858968219634
823,5.425,0.28831939277293
824,5.431,0.282201340456367
825,5.438,0.280105981666204
826,5.444,0.283041460726008
827,5.451,0.281371103954604
828,5.457,0.278465276198434
829,5.464,0.275223400334407
830,5.470,0.273819905295713
831,5.477,0.271467568540718
832,5.483,0.269589652643873
833,5.490,0.270647215806833
834,5.496,0.270044305966267
835,5.503,0.266604754744678
836,5.509,0.262997179469161
837,5.516,0.256434357598082
838,5.522,0.253528529841912
839,5.529,0.2534889947704
840,5.535,0.254111672146722
841,5.541,0.251561660034164
842,5.548,0.249446533708244
843,5.554,0.245680818146677
844,5.561,0.244455230929789
845,5.567,0.242004056496013
846,5.574,0.241094749851225
847,5.580,0.240017419152508
848,5.587,0.23815927079142
849,5.593,0.237398220664804
850,5.600,0.234966813766784
851,5.606,0.233108665405696
852,5.613,0.231705170367001
