#"+EI TIC Scan LOHC010_01_LQ1.d "
#Point,X(Minutes),Y(Counts)
0,0.101,0.19529531396357
1,0.108,0.185877412924207
2,0.114,0.176964042297668
3,0.121,0.166290821540686
4,0.127,0.156104112253212
5,0.133,0.148398010828784
6,0.140,0.142223519586141
7,0.146,0.137280322803363
8,0.153,0.131820582978886
9,0.159,0.127009525113752
10,0.166,0.121021229618698
11,0.172,0.115645578196358
12,0.179,0.113008806157914
13,0.185,0.112059808476651
14,0.192,0.109122720716289
15,0.198,0.107525041075683
16,0.205,0.104990376382691
17,0.211,0.101945174962438
18,0.218,0.0992723650373638
19,0.224,0.0957346458331644
20,0.230,0.0953622543379855
21,0.237,0.0959268478951922
22,0.243,0.0951340143893275
23,0.250,0.0922329645155952
24,0.256,0.0895961924771512
25,0.263,0.0868332878355015
26,0.269,0.0848632166997164
27,0.276,0.0834937770077683
28,0.282,0.0827429877029721
29,0.289,0.0817279205628878
30,0.295,0.0806347713351046
31,0.302,0.0806347713351046
32,0.308,0.0808269733971324
33,0.315,0.0805987334484744
34,0.321,0.0792593253287181
35,0.328,0.0785145423383603
36,0.334,0.0785866181116207
37,0.340,0.0782802960752639
38,0.347,0.0773012668218098
39,0.353,0.0768447869244937
40,0.360,0.0768688121822472
41,0.366,0.0773012668218098
42,0.373,0.0764784017437532
43,0.379,0.0752290883405724
44,0.386,0.0728325688796632
45,0.392,0.0731328846015816
46,0.399,0.0722319374358263
47,0.405,0.0711568071513582
48,0.412,0.070111708439082
49,0.418,0.0693188749332173
50,0.425,0.0703459547021784
51,0.431,0.0700576516091367
52,0.437,0.0703219294444249
53,0.444,0.0691206665567511
54,0.450,0.0679734604990226
55,0.457,0.0678233026380634
56,0.463,0.0670124501888836
57,0.470,0.0668142418124174
58,0.476,0.067312765910802
59,0.483,0.067360816426309
60,0.489,0.0662616608840874
61,0.496,0.0663577619151013
62,0.502,0.0663817871728548
63,0.509,0.0669523870444999
64,0.515,0.067703176349296
65,0.522,0.0675650311172135
66,0.528,0.0669043365289929
67,0.535,0.0670665070188289
68,0.541,0.0676971700348576
69,0.547,0.0671505954209661
70,0.554,0.0671325764776509
71,0.560,0.0672707217097334
72,0.567,0.06669411552365
73,0.573,0.066808235497979
74,0.580,0.0661955914252654
75,0.586,0.0669643996733766
76,0.593,0.0669944312455685
77,0.599,0.0667481723535953
78,0.606,0.0649282590787695
79,0.612,0.0634326867836156
80,0.619,0.0626158280199974
81,0.625,0.0628440679686554
82,0.632,0.0641774697739734
83,0.638,0.0641294192584664
84,0.644,0.0648621896199474
85,0.651,0.0659193009611004
86,0.657,0.0657391115279493
87,0.664,0.0649642969653997
88,0.670,0.0654327894915925
89,0.677,0.0657150862701959
90,0.683,0.0656309978680587
91,0.690,0.0665739892348826
92,0.696,0.0667902165546639
93,0.703,0.067312765910802
94,0.709,0.0658352125589632
95,0.716,0.0653547074038937
96,0.722,0.0665259387193757
97,0.729,0.0659313135899771
98,0.735,0.0640333182274525
99,0.742,0.0644837918103302
100,0.748,0.0658352125589632
101,0.754,0.0641894824028501
102,0.761,0.0636969646189039
103,0.767,0.0635948572734516
104,0.774,0.0648742022488242
105,0.780,0.0648681959343858
106,0.787,0.063504762556876
107,0.793,0.0629521816285461
108,0.800,0.0629581879429845
109,0.806,0.0635828446445748
110,0.813,0.063781053021041
111,0.819,0.0630723079173135
112,0.826,0.0617809503130641
113,0.832,0.0621052912927361
114,0.839,0.0629882195151763
115,0.845,0.0633065541804099
116,0.851,0.0640032866552607
117,0.858,0.0650003348520299
118,0.864,0.0634867436135609
119,0.871,0.0618710450296397
120,0.877,0.0616728366531735
121,0.884,0.0626638785355044
122,0.890,0.0615406977355294
123,0.897,0.0603274222189788
124,0.903,0.0605556621676368
125,0.910,0.060753870544103
126,0.916,0.0598649360072244
127,0.923,0.061696861910927
128,0.929,0.0619851650039687
129,0.936,0.0634026552114238
130,0.942,0.0637390088199724
131,0.949,0.0630663016028751
132,0.955,0.0622073986381883
133,0.961,0.0614986535344608
134,0.968,0.0607238389719112
135,0.974,0.0606517631986507
136,0.981,0.0614385903900771
137,0.987,0.0608439652606785
138,0.994,0.0611562936114737
139,1.000,0.0610541862660215
140,1.007,0.0615226787922142
141,1.013,0.0617929629419409
142,1.020,0.0628620869119706
143,1.026,0.0632464910360262
144,1.033,0.0636549204178353
145,1.039,0.0639312108820002
146,1.046,0.0615947545654747
147,1.052,0.06024934013128
148,1.058,0.059468519254292
149,1.065,0.0611683062403505
150,1.071,0.0623275249269557
151,1.078,0.0631083458039437
152,1.084,0.0633485983814784
153,1.091,0.062771992195395
154,1.097,0.0632464910360262
155,1.104,0.0636849519900271
156,1.110,0.0617328997975572
157,1.117,0.0619491271173385
158,1.123,0.0627659858809567
159,1.130,0.0613605083023783
160,1.136,0.0604595611366229
161,1.143,0.0615947545654747
162,1.149,0.0616848492820502
163,1.156,0.0603874853633625
164,1.162,0.0611262620392819
165,1.168,0.0612223630702958
166,1.175,0.0609220473483773
167,1.181,0.0607598768585414
168,1.188,0.0612283693847342
169,1.194,0.061696861910927
170,1.201,0.0617809503130641
171,1.207,0.0614506030189538
172,1.214,0.0615707293077212
173,1.220,0.0617328997975572
174,1.227,0.0612523946424876
175,1.233,0.0605856937398287
176,1.240,0.0596006581719362
177,1.246,0.0602673590745951
178,1.253,0.0608800031473088
179,1.259,0.0603514474767323
180,1.265,0.0586937046917424
181,1.272,0.0577086691238499
182,1.278,0.058069047990152
183,1.285,0.0588738941248935
184,1.291,0.060135220156951
185,1.298,0.0620752597205442
186,1.304,0.0616548177098584
187,1.311,0.0620572407772291
188,1.317,0.0614806345911457
189,1.324,0.0616127735087898
190,1.330,0.061696861910927
191,1.337,0.0620692534061058
192,1.343,0.06164881139542
193,1.350,0.0613184641013097
194,1.356,0.0602193085590882
195,1.363,0.0599850622959918
196,1.369,0.059126159331305
197,1.375,0.05800297853133
198,1.382,0.058783799408318
199,1.388,0.0612103504414191
200,1.395,0.0614506030189538
201,1.401,0.0615947545654747
202,1.408,0.059354399279963
203,1.414,0.0583273195110019
204,1.421,0.057954928015823
205,1.427,0.0574744228607535
206,1.434,0.0580930732479055
207,1.440,0.0592522919345107
208,1.447,0.0606998137141577
209,1.453,0.0614445967045155
210,1.460,0.0621593481226814
211,1.466,0.0634026552114238
212,1.472,0.063324573123725
213,1.479,0.0623275249269557
214,1.485,0.0615406977355294
215,1.492,0.0616668303387351
216,1.498,0.0622434365248185
217,1.505,0.0610541862660215
218,1.511,0.0603454411622939
219,1.518,0.0608739968328704
220,1.524,0.0605376432243217
221,1.531,0.0589279509548388
222,1.537,0.0589099320115237
223,1.544,0.0590180456714144
224,1.550,0.0595526076564292
225,1.557,0.0600751570125673
226,1.563,0.0603394348478555
227,1.569,0.0610902241526517
228,1.576,0.0608439652606785
229,1.582,0.0619611397462152
230,1.589,0.0629641942574228
231,1.595,0.0626278406488742
232,1.602,0.0630362700306833
233,1.608,0.0615467040499677
234,1.615,0.0614445967045155
235,1.621,0.0612884325291179
236,1.628,0.0616067671943514
237,1.634,0.0618049755708176
238,1.641,0.0609220473483773
239,1.647,0.0599790559815534
240,1.654,0.0592582982489491
241,1.660,0.0599129865227313
242,1.667,0.0599790559815534
243,1.673,0.0599610370382383
244,1.679,0.0602433338168416
245,1.686,0.0608559778895553
246,1.692,0.0614566093333922
247,1.699,0.0598889612649779
248,1.705,0.0596607213163198
249,1.712,0.0603334285334172
250,1.718,0.0615887482510363
251,1.725,0.0621052912927361
252,1.731,0.0621773670659965
253,1.738,0.060477580079938
254,1.744,0.0617028682253653
255,1.751,0.0618710450296397
256,1.757,0.0616608240242967
257,1.764,0.0589760014703458
258,1.770,0.0578167827837405
259,1.776,0.0596186771152513
260,1.783,0.0604355358788694
261,1.789,0.0614806345911457
262,1.796,0.0606097189975822
263,1.802,0.05940244979547
264,1.809,0.0584474457997693
265,1.815,0.0572281639687804
266,1.822,0.0594505003109769
267,1.828,0.0614686219622689
268,1.835,0.060525630595445
269,1.841,0.0588378562382633
270,1.848,0.0566755830404504
271,1.854,0.0574323786596849
272,1.861,0.0573122523709175
273,1.867,0.0581471300778508
274,1.874,0.0592162540478805
275,1.880,0.0595405950275525
276,1.886,0.0602733653890335
277,1.893,0.0603994979922392
278,1.899,0.060135220156951
279,1.906,0.0589519762125923
280,1.912,0.0589219446404005
281,1.919,0.0595946518574978
282,1.925,0.0586336415473587
283,1.932,0.0577206817527266
284,1.938,0.0579789532735765
285,1.945,0.0590961277591132
286,1.951,0.060477580079938
287,1.958,0.0593183613933328
288,1.964,0.0578227890981789
289,1.971,0.0563872799474087
290,1.977,0.0564353304629157
291,1.983,0.0579369090725079
292,1.990,0.0584354331708926
293,1.996,0.0586756857484273
294,2.003,0.0583813763409472
295,2.009,0.0581531363922892
296,2.016,0.058069047990152
297,2.022,0.0588859067537702
298,2.029,0.0596487086874431
299,2.035,0.0603094032756637
300,2.042,0.0601412264713894
301,2.048,0.0594745255687304
302,2.055,0.0585255278874681
303,2.061,0.0583813763409472
304,2.068,0.0591621972179352
305,2.074,0.0587477615216877
306,2.081,0.0580390164179602
307,2.087,0.0580570353612753
308,2.093,0.0598228918061558
309,2.100,0.0599790559815534
310,2.106,0.0603994979922392
311,2.113,0.0608920157761855
312,2.119,0.0606938073997193
313,2.126,0.0604055043066776
314,2.132,0.0606938073997193
315,2.139,0.0608800031473088
316,2.145,0.0598709423216628
317,2.152,0.0613545019879399
318,2.158,0.0620332155194756
319,2.165,0.0617389061119955
320,2.171,0.0603994979922392
321,2.178,0.0601292138425126
322,2.184,0.0585015026297146
323,2.190,0.0574083534019314
324,2.197,0.0579369090725079
325,2.203,0.0590841151302364
326,2.210,0.0591381719601817
327,2.216,0.06024934013128
328,2.223,0.0623275249269557
329,2.229,0.0618710450296397
330,2.236,0.0603274222189788
331,2.242,0.0611863251836656
332,2.249,0.0657751494145795
333,2.255,0.0762741870528486
334,2.262,0.102071307565644
335,2.268,0.146512028095136
336,2.275,0.195895945407407
337,2.281,0.240853208978599
338,2.288,0.272686675501955
339,2.294,0.290351246265199
340,2.300,0.293973053871535
341,2.307,0.296369573332444
342,2.313,0.298207505550585
343,2.320,0.296123314440471
344,2.326,0.293054087762465
345,2.333,0.290675587244871
346,2.339,0.285738396776531
347,2.346,0.27962997499271
348,2.352,0.276074236845195
349,2.359,0.272638624986448
350,2.365,0.266085735934188
351,2.372,0.263527045983442
352,2.378,0.278548838393803
353,2.385,0.306568295248795
354,2.391,0.323367956732913
355,2.397,0.262566035673303
356,2.404,0.130102777049512
357,2.410,0.0279173495095394
358,2.417,0
359,2.423,0
360,2.430,0
361,2.436,0
362,2.443,0
363,2.449,0
364,2.456,0
365,2.462,0
366,2.469,0
367,2.475,0
368,2.482,0
369,2.488,0
370,2.495,0
371,2.501,0
372,2.507,0
373,2.514,0
374,2.520,0
375,2.527,0
376,2.533,0
377,2.540,0
378,2.546,0
379,2.553,0
380,2.559,0
381,2.566,0
382,2.572,0
383,2.579,0
384,2.585,0
385,2.592,0
386,2.598,0
387,2.604,0
388,2.611,0
389,2.617,0
390,2.624,0
391,2.630,0
392,2.637,0
393,2.643,0
394,2.650,0
395,2.656,0
396,2.663,0
397,2.669,0
398,2.676,0
399,2.682,0
400,2.689,0
401,2.695,0
402,2.702,0
403,2.708,0
404,2.714,0
405,2.721,0
406,2.727,0
407,2.734,0
408,2.740,0
409,2.747,0
410,2.753,0
411,2.760,0
412,2.766,0
413,2.773,0
414,2.779,0
415,2.786,0
416,2.792,0
417,2.799,0
418,2.805,0
419,2.811,0
420,2.818,0
421,2.824,0
422,2.831,0
423,2.837,0
424,2.844,0
425,2.850,0
426,2.857,0
427,2.863,0
428,2.870,0
429,2.876,0
430,2.883,0
431,2.889,0
432,2.896,0
433,2.902,0
434,2.909,0
435,2.915,0
436,2.921,0
437,2.928,0
438,2.934,0
439,2.941,0
440,2.947,0
441,2.954,0
442,2.960,0
443,2.967,0
444,2.973,0
445,2.980,0
446,2.986,0
447,2.993,0
448,2.999,0
449,3.006,0
450,3.012,0
451,3.018,0
452,3.025,0
453,3.031,0
454,3.038,0
455,3.044,0
456,3.051,0
457,3.057,0
458,3.064,0
459,3.070,0
460,3.077,0
461,3.083,0
462,3.090,0
463,3.096,0
464,3.103,0
465,3.109,0
466,3.116,0
467,3.122,0
468,3.128,0
469,3.135,0
470,3.141,0
471,3.148,0
472,3.154,0
473,3.161,0
474,3.167,0
475,3.174,0
476,3.180,0
477,3.187,0
478,3.193,0
479,3.200,0
480,3.206,0
481,3.213,0
482,3.219,0
483,3.225,0
484,3.232,0
485,3.238,0
486,3.245,0
487,3.251,0
488,3.258,0
489,3.264,0
490,3.271,0
491,3.277,0
492,3.284,0
493,3.290,0
494,3.297,0
495,3.303,0
496,3.310,0
497,3.316,0
498,3.323,0
499,3.329,0
500,3.335,0
501,3.342,0
502,3.348,0
503,3.355,0
504,3.361,0
505,3.368,0
506,3.374,0
507,3.381,0
508,3.387,0
509,3.394,0
510,3.400,0
511,3.407,0
512,3.413,0
513,3.420,0
514,3.426,0
515,3.432,0
516,3.439,0
517,3.445,0
518,3.452,0
519,3.458,0
520,3.465,0
521,3.471,0
522,3.478,0
523,3.484,0
524,3.491,0
525,3.497,0
526,3.504,0
527,3.510,0
528,3.517,0
529,3.523,0
530,3.530,0
531,3.536,0
532,3.542,0
533,3.549,0
534,3.555,0
535,3.562,0
536,3.568,0
537,3.575,0
538,3.581,0
539,3.588,0
540,3.594,0
541,3.601,0
542,3.607,0
543,3.614,0
544,3.620,0
545,3.627,0
546,3.633,0
547,3.639,0
548,3.646,0
549,3.652,0
550,3.659,0
551,3.665,0
552,3.672,0
553,3.678,0
554,3.685,0
555,3.691,0
556,3.698,0
557,3.704,0
558,3.711,0
559,3.717,0
560,3.724,0
561,3.730,0
562,3.737,0
563,3.743,0
564,3.749,0
565,3.756,0
566,3.762,0
567,3.769,0
568,3.775,0
569,3.782,0
570,3.788,0
571,3.795,0
572,3.801,0
573,3.808,0
574,3.814,0
575,3.821,0
576,3.827,0
577,3.834,0
578,3.840,0
579,3.846,0
580,3.853,0
581,3.859,0
582,3.866,0
583,3.872,0
584,3.879,0
585,3.885,0
586,3.892,0
587,3.898,0
588,3.905,0
589,3.911,0
590,3.918,0
591,3.924,0
592,3.931,0
593,3.937,0
594,3.944,0
595,3.950,0
596,3.956,0
597,3.963,0
598,3.969,0
599,3.976,0
600,3.982,0
601,3.989,0
602,3.995,0
603,4.002,0
604,4.008,0
605,4.015,0
606,4.021,0
607,4.028,0
608,4.034,0
609,4.041,0
610,4.047,0
611,4.053,0
612,4.060,0
613,4.066,0
614,4.073,0
615,4.079,0
616,4.086,0
617,4.092,0
618,4.099,0
619,4.105,0
620,4.112,0
621,4.118,0
622,4.125,0
623,4.131,0
624,4.138,0
625,4.144,0
626,4.151,0
627,4.157,0
628,4.163,0
629,4.170,0
630,4.176,0
631,4.183,0
632,4.189,0
633,4.196,0
634,4.202,0
635,4.209,0
636,4.215,0
637,4.222,0
638,4.228,0
639,4.235,0
640,4.241,0
641,4.248,0
642,4.254,0
643,4.260,0
644,4.267,0
645,4.273,0
646,4.280,0
647,4.286,0
648,4.293,0
649,4.299,0
650,4.306,0
651,4.312,0
652,4.319,0
653,4.325,0
654,4.332,0
655,4.338,0
656,4.345,0
657,4.351,0
658,4.358,0
659,4.364,0
660,4.370,0
661,4.377,0
662,4.383,0
663,4.390,0
664,4.396,0
665,4.403,0
666,4.409,0
667,4.416,0.0351970026088427
668,4.422,0.215266309471147
669,4.429,0.597556210844461
670,4.435,1.52657088397032
671,4.442,2.86775086648594
672,4.448,3.81696477506803
673,4.455,3.9731409630945
674,4.461,3.82689321283465
675,4.467,3.72878006648389
676,4.474,3.65485434837645
677,4.480,3.55314942599154
678,4.487,3.4653851594181
679,4.493,3.40569440652958
680,4.500,3.31685500967167
681,4.506,3.20547992104099
682,4.513,3.12273092702358
683,4.519,3.04311122282856
684,4.526,2.94536446165854
685,4.532,2.87302441056282
686,4.539,2.81659508641435
687,4.545,2.7330412462622
688,4.552,2.64940932402234
689,4.558,2.59909442797213
690,4.565,2.54178217560121
691,4.571,2.46421062462967
692,4.577,2.39988900330918
693,4.584,2.34703944256597
694,4.590,2.27890981789155
695,4.597,2.21303256113152
696,4.603,2.16435138260854
697,4.610,2.10918939080655
698,4.616,2.04876586755656
699,4.623,2.006036946642
700,4.629,1.95861709415108
701,4.636,1.89174879550872
702,4.642,1.84163811414941
703,4.649,1.80986471077043
704,4.655,1.76198837838219
705,4.662,1.70869435037054
706,4.668,1.67079450626444
707,4.674,1.62814967375202
708,4.681,1.57748040514993
709,4.687,1.54246359197424
710,4.694,1.51340504272141
711,4.700,1.47053197026033
712,4.707,1.43152696429757
713,4.713,1.404294334634
714,4.720,1.36692304619847
715,4.726,1.3251010787641
716,4.733,1.29720174819788
717,4.739,1.27252180217062
718,4.746,1.23800351309331
719,4.752,1.20708901267903
720,4.759,1.1828054834047
721,4.765,1.15366284574974
722,4.772,1.12091041311731
723,4.778,1.09915554222154
724,4.784,1.07765293653218
725,4.791,1.04946530287291
726,4.797,1.02903782746802
727,4.804,1.01073058105987
728,4.810,0.98332376827759
729,4.817,0.952235084744592
730,4.823,0.933597491042333
731,4.830,0.913362217699467
732,4.836,0.889258877858292
733,4.843,0.871281978744254
734,4.849,0.854284108883669
735,4.856,0.832469174843513
736,4.862,0.81771166026844
737,4.869,0.808401872888968
738,4.875,0.794208951871102
739,4.881,0.775277048761363
740,4.888,0.758651570395957
741,4.894,0.740626620766412
742,4.901,0.721898932347577
743,4.907,0.708228560685849
744,4.914,0.69548316144763
745,4.920,0.6794643208405
746,4.927,0.663337366573479
747,4.933,0.652550025842168
748,4.940,0.639888715006086
749,4.946,0.625839945534741
750,4.953,0.611857245522217
751,4.959,0.602925855952363
752,4.966,0.593489935969685
753,4.972,0.590036305167623
754,4.979,0.587453589959124
755,4.985,0.578360029899433
756,4.991,0.5655185296302
757,4.998,0.55568619289459
758,5.004,0.545985995076624
759,5.011,0.532099396095115
760,5.017,0.521828598405504
761,5.024,0.513089410897677
762,5.030,0.504920823261495
763,5.037,0.496157610495914
764,5.043,0.487868896570965
765,5.050,0.477441934705956
766,5.056,0.46597588044311
767,5.063,0.456642067805884
768,5.069,0.449981065093733
769,5.076,0.442713424623306
770,5.082,0.437896360443734
771,5.088,0.432923132088765
772,5.095,0.424340108756335
773,5.101,0.414537803592917
774,5.108,0.407798718793067
775,5.114,0.402825490438098
776,5.121,0.394855111178382
777,5.127,0.3866865235422
778,5.134,0.38138294789312
779,5.140,0.374613831521078
780,5.147,0.369226167469861
781,5.153,0.365430176744812
782,5.160,0.356757058695807
783,5.166,0.348234098507761
784,5.173,0.345062764484302
785,5.179,0.340161611902593
786,5.186,0.32986078264079
787,5.192,0.321439929798197
788,5.198,0.320046464848495
789,5.205,0.318947309306274
790,5.211,0.313481563167358
791,5.218,0.310736677469023
792,5.224,0.306838579398522
793,5.231,0.301354814316291
794,5.237,0.296669889054363
795,5.244,0.291846818560352
796,5.250,0.28666336920004
797,5.257,0.281047465200165
798,5.263,0.278236510043008
799,5.270,0.274704797153247
800,5.276,0.268686470086001
801,5.283,0.264187740571663
802,5.289,0.261118513893656
803,5.295,0.257430636828498
804,5.302,0.255388489919452
805,5.308,0.254049081799696
806,5.315,0.249826642749523
807,5.321,0.245424014266198
808,5.328,0.240390722766845
809,5.334,0.237135300341249
810,5.341,0.23617429003111
811,5.347,0.236648788871741
812,5.354,0.23646859943859
813,5.360,0.234864913483545
814,5.367,0.229723508324301
815,5.373,0.226642269017418
816,5.380,0.221284636538393
817,5.386,0.216017098775943
818,5.393,0.215356404187723
819,5.399,0.216725843879671
820,5.405,0.2152903347289
821,5.412,0.213446396196321
822,5.418,0.209854620162176
823,5.425,0.206166743097018
824,5.431,0.20365610366178
825,5.438,0.20100131268002
826,5.444,0.198520704816974
827,5.451,0.194844840380692
828,5.457,0.194436410998883
829,5.464,0.194274240509047
830,5.470,0.19327118599784
831,5.477,0.192694579811756
832,5.483,0.19279068084277
833,5.490,0.190346110866354
834,5.496,0.186778360089963
835,5.502,0.184670143722095
836,5.509,0.183084476710366
837,5.515,0.183006394622667
838,5.522,0.179762984825948
839,5.528,0.178303450417424
840,5.535,0.175300293198239
841,5.541,0.174549503893443
842,5.548,0.17349239255229
843,5.554,0.17146826458656
844,5.561,0.169828540744885
845,5.567,0.168645296800526
846,5.574,0.167714318062579
847,5.580,0.167852463294662
848,5.587,0.1688915556925
849,5.593,0.169372060847569
850,5.600,0.167852463294662
851,5.606,0.164410845121476
852,5.612,0.162092407748266
853,5.619,0.160548784937605
854,5.625,0.159317490477739
