#"+EI TIC Scan MBPR054_01_LQ1.d "
#Point,X(Minutes),Y(Counts)
0,0.101,0.221630852950676
1,0.108,0.210223382578215
2,0.114,0.201377551515384
3,0.121,0.191970339922996
4,0.127,0.182988251450079
5,0.134,0.175205228185924
6,0.140,0.168686673687375
7,0.146,0.165231185767576
8,0.153,0.164277383896968
9,0.159,0.162244423338474
10,0.166,0.159039649053234
11,0.172,0.154832020229756
12,0.179,0.148351617806031
13,0.185,0.141773110047044
14,0.192,0.138666441097066
15,0.198,0.136709784688221
16,0.205,0.135020192803145
17,0.211,0.133363302696491
18,0.218,0.130540049159493
19,0.224,0.128964913498891
20,0.231,0.126250665889963
21,0.237,0.12278972767376
22,0.243,0.121214592013157
23,0.250,0.119263385900715
24,0.256,0.118767408928
25,0.263,0.114870446999519
26,0.269,0.10915308607228
27,0.276,0.106962066918085
28,0.282,0.106858511286419
29,0.289,0.106842160397209
30,0.295,0.104269620494771
31,0.302,0.102187607268646
32,0.308,0.100448962715939
33,0.315,0.099097289207879
34,0.321,0.0960996261859709
35,0.328,0.0929711560503795
36,0.334,0.0904367682227663
37,0.341,0.0891777497535648
38,0.347,0.0901261013277685
39,0.353,0.090131551624172
40,0.360,0.0891941006427752
41,0.366,0.088970638490233
42,0.373,0.0872265436411228
43,0.379,0.0873737016440165
44,0.386,0.0864362506626198
45,0.392,0.0833786343802735
46,0.399,0.0818034987196709
47,0.405,0.0826155928837878
48,0.412,0.0843269859544772
49,0.418,0.084626752256668
50,0.425,0.0838473598709719
51,0.431,0.082675546144226
52,0.438,0.0797596375683699
53,0.444,0.0770453899594422
54,0.450,0.0763314011305877
55,0.457,0.0771979982587393
56,0.463,0.0766856703968132
57,0.470,0.0749579264369134
58,0.476,0.0736008026324496
59,0.483,0.0745164524282324
60,0.489,0.0761515413492732
61,0.496,0.0750124294009481
62,0.502,0.0756010614125228
63,0.509,0.0772852030011948
64,0.515,0.0765821147651473
65,0.522,0.0758136229722581
66,0.528,0.0764622082442709
67,0.535,0.0763150502413773
68,0.541,0.0752358915534903
69,0.548,0.0743856453145491
70,0.554,0.0739332707130612
71,0.560,0.0745382536138463
72,0.567,0.0749361252512995
73,0.573,0.0743692944253387
74,0.580,0.0727560066899118
75,0.586,0.0715405905919382
76,0.593,0.0714479355530792
77,0.599,0.0704886833860686
78,0.606,0.0687609394261688
79,0.612,0.0678616405195964
80,0.619,0.0669132889453927
81,0.625,0.0679052428908241
82,0.632,0.0699000513744939
83,0.638,0.0701998176766847
84,0.645,0.070319724197561
85,0.651,0.0708756544307149
86,0.657,0.0693986241053747
87,0.664,0.0686519334980994
88,0.670,0.0697419927787933
89,0.677,0.0698237472248453
90,0.683,0.0673874647324945
91,0.690,0.0666625753108331
92,0.696,0.0656215686977705
93,0.703,0.0668478853885511
94,0.709,0.0687609394261688
95,0.716,0.0704450810148408
96,0.722,0.0698182969284419
97,0.729,0.0687990915009931
98,0.735,0.0675836754030194
99,0.742,0.0681886583038045
100,0.748,0.0707175958350143
101,0.755,0.0711590698436953
102,0.761,0.0697092910003725
103,0.767,0.0675073712533709
104,0.774,0.0663573587122388
105,0.780,0.066068493002855
106,0.787,0.0647495212732154
107,0.793,0.064651415937953
108,0.800,0.0643516496357621
109,0.806,0.0637902691062048
110,0.813,0.0636812631781354
111,0.819,0.0644170531926038
112,0.826,0.0653872059524213
113,0.832,0.0648040242372501
114,0.839,0.0649021295725125
115,0.845,0.0650983402430374
116,0.852,0.0649838840185646
117,0.858,0.0661720486345209
118,0.864,0.0651637437998791
119,0.871,0.0639592282947123
120,0.877,0.0641663395580442
121,0.884,0.0651855449854929
122,0.890,0.0659158847035578
123,0.897,0.064547860306287
124,0.903,0.0643461993393587
125,0.910,0.0639755791839228
126,0.916,0.0644497549710246
127,0.923,0.062956373756474
128,0.929,0.0636158596212938
129,0.936,0.0650765390574236
130,0.942,0.0669841427986378
131,0.949,0.0662810545625903
132,0.955,0.0638556726630464
133,0.962,0.0624167944125305
134,0.968,0.0625803033046346
135,0.974,0.061969870107446
136,0.981,0.0607980563807001
137,0.987,0.0609179629015765
138,0.994,0.0605909451173683
139,1.000,0.0618717647721836
140,1.007,0.0636976140673458
141,1.013,0.0640464330371679
142,1.020,0.0621606304815675
143,1.026,0.0600731669590387
144,1.033,0.0593319266481669
145,1.039,0.0596371432467612
146,1.046,0.0614302907635026
147,1.052,0.0622750867060403
148,1.059,0.0615610978771859
149,1.065,0.0612994836498193
150,1.071,0.0594681840582536
151,1.078,0.0591684177560628
152,1.084,0.0587487449329957
153,1.091,0.0583617738883494
154,1.097,0.0598606053993034
155,1.104,0.0620243730714807
156,1.110,0.0625694027118277
157,1.117,0.0629672743492809
158,1.123,0.0631907365018232
159,1.130,0.0619044665506044
160,1.136,0.0633869471723481
161,1.143,0.0628909701996324
162,1.149,0.0614956943203442
163,1.156,0.0618009109189385
164,1.162,0.0611414250541187
165,1.169,0.0604165356324573
166,1.175,0.0597788509532514
167,1.181,0.0594790846510606
168,1.188,0.0593809793157981
169,1.194,0.0597025468036028
170,1.201,0.0603184302971949
171,1.207,0.0602802782223706
172,1.214,0.0591847686452732
173,1.220,0.0594627337618502
174,1.227,0.060460138003685
175,1.233,0.0611305244613118
176,1.240,0.0613049339462228
177,1.246,0.0609016120123661
178,1.253,0.0608089569735071
179,1.259,0.0610814717936806
180,1.266,0.0610160682368389
181,1.272,0.0610487700152597
182,1.278,0.0602366758511428
183,1.285,0.0608743605303487
184,1.291,0.0609779161620146
185,1.298,0.0606617989706134
186,1.304,0.0606726995634204
187,1.311,0.0601167693302665
188,1.317,0.0597025468036028
189,1.324,0.0600677166626353
190,1.330,0.0606617989706134
191,1.337,0.0594627337618502
192,1.343,0.0602094243691255
193,1.350,0.0610487700152597
194,1.356,0.0611087232756979
195,1.363,0.060203974072722
196,1.369,0.0606563486742099
197,1.376,0.0603020794079844
198,1.382,0.059751599471234
199,1.388,0.0583944756667702
200,1.395,0.0591793183488698
201,1.401,0.0597025468036028
202,1.408,0.058879552046679
203,1.414,0.0587923473042234
204,1.421,0.0574733755745839
205,1.427,0.0573262175716902
206,1.434,0.0575060773530047
207,1.440,0.0585743354480847
208,1.447,0.0574733755745839
209,1.453,0.0587541952293992
210,1.460,0.0599042077705312
211,1.466,0.0591902189416767
212,1.473,0.059135715977642
213,1.479,0.0593809793157981
214,1.485,0.0592447219057114
215,1.492,0.0580620075861586
216,1.498,0.0594245816870259
217,1.505,0.0582691188494904
218,1.511,0.0587814467114165
219,1.518,0.0590376106423796
220,1.524,0.0588359496754512
221,1.531,0.0584217271487875
222,1.537,0.059484534947464
223,1.544,0.0603674829648261
224,1.550,0.0594572834654467
225,1.557,0.0591847686452732
226,1.563,0.0608089569735071
227,1.570,0.059669845025182
228,1.576,0.0588959029358894
229,1.583,0.0579039489904579
230,1.589,0.057625983873881
231,1.595,0.0574134223141457
232,1.602,0.057636884466688
233,1.608,0.0565413748895906
234,1.615,0.0559636434708229
235,1.621,0.0568193400061675
236,1.628,0.0572335625328312
237,1.634,0.0589667567891345
238,1.641,0.0597734006568479
239,1.647,0.0596262426539542
240,1.654,0.0604110853360538
241,1.660,0.0590648621243969
242,1.667,0.0589558561963275
243,1.673,0.0598115527316722
244,1.680,0.0602693776295636
245,1.686,0.0587650958222061
246,1.692,0.0582473176638765
247,1.699,0.0589013532322928
248,1.705,0.0596480438395681
249,1.712,0.0575551300206359
250,1.718,0.0574733755745839
251,1.725,0.05745157438897
252,1.731,0.0581546626250175
253,1.738,0.0593373769445704
254,1.744,0.0589231544179067
255,1.751,0.0589885579747483
256,1.757,0.0590648621243969
257,1.764,0.0584871307056292
258,1.770,0.0590485112351865
259,1.777,0.0589885579747483
260,1.783,0.0602911788151775
261,1.790,0.0594572834654467
262,1.796,0.0577404400983539
263,1.802,0.056557725778801
264,1.809,0.056465070739942
265,1.815,0.0566939831888878
266,1.822,0.0575823815026533
267,1.828,0.0587269437473818
268,1.835,0.0591956692380802
269,1.841,0.0598224533244791
270,1.848,0.0587650958222061
271,1.854,0.0583672241847528
272,1.861,0.0577458903947573
273,1.867,0.0572989660896729
274,1.874,0.05584918724635
275,1.880,0.0549771398217949
276,1.887,0.0543830575138168
277,1.893,0.0553477599772308
278,1.899,0.0566830825960808
279,1.906,0.0569501471198508
280,1.912,0.0574079720177422
281,1.919,0.0576804868379157
282,1.925,0.0578494460264233
283,1.932,0.0570428021587098
284,1.938,0.0574352234997596
285,1.945,0.0575714809098463
286,1.951,0.0569719483054647
287,1.958,0.0573752702393214
288,1.964,0.0585634348552777
289,1.971,0.0581056099573863
290,1.977,0.0569119950450265
291,1.984,0.0568956441558161
292,1.990,0.0563179127370484
293,1.997,0.0551842510851268
294,2.003,0.0555548712405627
295,2.009,0.0560944505845061
296,2.016,0.0572063110508139
297,2.022,0.0571736092723931
298,2.029,0.0568411411917814
299,2.035,0.0551788007887233
300,2.042,0.0552115025671441
301,2.048,0.0554349647196863
302,2.055,0.0563615151082761
303,2.061,0.056568626371608
304,2.068,0.0564977725183629
305,2.074,0.0590049088639587
306,2.081,0.060727202527455
307,2.087,0.0619099168470079
308,2.094,0.061806361215342
309,2.100,0.0604383368180712
310,2.106,0.0589831076783449
311,2.113,0.0586233881157159
312,2.119,0.0583018206279112
313,2.126,0.0566830825960808
314,2.132,0.0566067784464322
315,2.139,0.0573316678680937
316,2.145,0.0584925810020326
317,2.152,0.057974802843703
318,2.158,0.0568574920809918
319,2.165,0.0558110351715257
320,2.171,0.0555984736117904
321,2.178,0.0556093742045974
322,2.184,0.0557401813182806
323,2.191,0.056127152362927
324,2.197,0.0558164854679292
325,2.204,0.0556638771686321
326,2.210,0.0565032228147663
327,2.216,0.0570646033443237
328,2.223,0.0582364170710696
329,2.229,0.0584162768523841
330,2.236,0.0590103591603622
331,2.242,0.0594082307978155
332,2.249,0.0651582935034756
333,2.255,0.0787731339193419
334,2.262,0.107964921456324
335,2.268,0.148128155653489
336,2.275,0.190945684199144
337,2.281,0.227800588479403
338,2.288,0.254245426629036
339,2.294,0.268023775937007
340,2.301,0.273604879454159
341,2.307,0.274836646441343
342,2.313,0.274978354147834
343,2.320,0.27214420001803
344,2.326,0.266443189980001
345,2.333,0.261608777070123
346,2.339,0.259188845466983
347,2.346,0.258709219383478
348,2.352,0.257014177201999
349,2.359,0.253684046099479
350,2.365,0.258970833610844
351,2.372,0.285971601993631
352,2.378,0.338953933331756
353,2.385,0.403267430892694
354,2.391,0.437359034896395
355,2.398,0.355479232027075
356,2.404,0.174436736393035
357,2.411,0.0369639102083289
358,2.417,0
359,2.423,0
360,2.430,0
361,2.436,0
362,2.443,0
363,2.449,0
364,2.456,0
365,2.462,0
366,2.469,0
367,2.475,0
368,2.482,0
369,2.488,0
370,2.495,0
371,2.501,0
372,2.508,0
373,2.514,0
374,2.520,0
375,2.527,0
376,2.533,0
377,2.540,0
378,2.546,0
379,2.553,0
380,2.559,0
381,2.566,0
382,2.572,0
383,2.579,0
384,2.585,0
385,2.592,0
386,2.598,0
387,2.605,0
388,2.611,0
389,2.618,0
390,2.624,0
391,2.630,0
392,2.637,0
393,2.643,0
394,2.650,0
395,2.656,0
396,2.663,0
397,2.669,0
398,2.676,0
399,2.682,0
400,2.689,0
401,2.695,0
402,2.702,0
403,2.708,0
404,2.715,0
405,2.721,0
406,2.727,0
407,2.734,0
408,2.740,0
409,2.747,0
410,2.753,0
411,2.760,0
412,2.766,0
413,2.773,0
414,2.779,0
415,2.786,0
416,2.792,0
417,2.799,0
418,2.805,0
419,2.812,0
420,2.818,0
421,2.825,0
422,2.831,0
423,2.837,0
424,2.844,0
425,2.850,0
426,2.857,0
427,2.863,0
428,2.870,0
429,2.876,0
430,2.883,0
431,2.889,0
432,2.896,0
433,2.902,0
434,2.909,0
435,2.915,0
436,2.922,0
437,2.928,0
438,2.934,0
439,2.941,0
440,2.947,0
441,2.954,0
442,2.960,0
443,2.967,0
444,2.973,0
445,2.980,0
446,2.986,0
447,2.993,0
448,2.999,0
449,3.006,0
450,3.012,0
451,3.019,0
452,3.025,0
453,3.032,0
454,3.038,0
455,3.044,0
456,3.051,0
457,3.057,0
458,3.064,0
459,3.070,0
460,3.077,0
461,3.083,0
462,3.090,0
463,3.096,0
464,3.103,0
465,3.109,0
466,3.116,0
467,3.122,0
468,3.129,0
469,3.135,0
470,3.141,0
471,3.148,0
472,3.154,0
473,3.161,0
474,3.167,0
475,3.174,0
476,3.180,0
477,3.187,0
478,3.193,0
479,3.200,0
480,3.206,0
481,3.213,0
482,3.219,0
483,3.226,0
484,3.232,0
485,3.239,0
486,3.245,0
487,3.251,0
488,3.258,0
489,3.264,0
490,3.271,0
491,3.277,0
492,3.284,0
493,3.290,0
494,3.297,0
495,3.303,0
496,3.310,0
497,3.316,0
498,3.323,0
499,3.329,0
500,3.336,0
501,3.342,0
502,3.348,0
503,3.355,0
504,3.361,0
505,3.368,0
506,3.374,0
507,3.381,0
508,3.387,0
509,3.394,0
510,3.400,0
511,3.407,0
512,3.413,0
513,3.420,0
514,3.426,0
515,3.433,0
516,3.439,0
517,3.446,0
518,3.452,0
519,3.458,0
520,3.465,0
521,3.471,0
522,3.478,0
523,3.484,0
524,3.491,0
525,3.497,0
526,3.504,0
527,3.510,0
528,3.517,0
529,3.523,0
530,3.530,0
531,3.536,0
532,3.543,0
533,3.549,0
534,3.555,0
535,3.562,0
536,3.568,0
537,3.575,0
538,3.581,0
539,3.588,0
540,3.594,0
541,3.601,0
542,3.607,0
543,3.614,0
544,3.620,0
545,3.627,0
546,3.633,0
547,3.640,0
548,3.646,0
549,3.652,0
550,3.659,0
551,3.665,0
552,3.672,0
553,3.678,0
554,3.685,0
555,3.691,0
556,3.698,0
557,3.704,0
558,3.711,0
559,3.717,0
560,3.724,0
561,3.730,0
562,3.737,0
563,3.743,0
564,3.750,0
565,3.756,0
566,3.762,0
567,3.769,0
568,3.775,0
569,3.782,0
570,3.788,0
571,3.795,0
572,3.801,0
573,3.808,0
574,3.814,0
575,3.821,0
576,3.827,0
577,3.834,0
578,3.840,0
579,3.847,0
580,3.853,0
581,3.859,0
582,3.866,0
583,3.872,0
584,3.879,0
585,3.885,0
586,3.892,0
587,3.898,0
588,3.905,0
589,3.911,0
590,3.918,0
591,3.924,0
592,3.931,0
593,3.937,0
594,3.944,0
595,3.950,0
596,3.957,0
597,3.963,0
598,3.969,0
599,3.976,0
600,3.982,0
601,3.989,0
602,3.995,0
603,4.002,0
604,4.008,0
605,4.015,0
606,4.021,0
607,4.028,0
608,4.034,0
609,4.041,0
610,4.047,0
611,4.054,0
612,4.060,0
613,4.066,0
614,4.073,0
615,4.079,0
616,4.086,0
617,4.092,0
618,4.099,0
619,4.105,0
620,4.112,0
621,4.118,0
622,4.125,0
623,4.131,0
624,4.138,0
625,4.144,0
626,4.151,0
627,4.157,0
628,4.164,0
629,4.170,0
630,4.176,0
631,4.183,0
632,4.189,0
633,4.196,0
634,4.202,0
635,4.209,0
636,4.215,0
637,4.222,0
638,4.228,0
639,4.235,0
640,4.241,0
641,4.248,0
642,4.254,0
643,4.261,0
644,4.267,0
645,4.273,0
646,4.280,0
647,4.286,0
648,4.293,0
649,4.299,0
650,4.306,0
651,4.312,0
652,4.319,0
653,4.325,0
654,4.332,0
655,4.338,0
656,4.345,0
657,4.351,0
658,4.358,0
659,4.364,0
660,4.371,0
661,4.377,0
662,4.383,0
663,4.390,0
664,4.396,0
665,4.403,0
666,4.409,0
667,4.416,0.0312029469098618
668,4.422,0.191408959393439
669,4.429,0.572308373846295
670,4.435,1.63238012372827
671,4.442,3.13221448922057
672,4.448,4.14293380516913
673,4.455,4.28439624832117
674,4.461,4.15494625844237
675,4.468,4.07600416533452
676,4.474,3.97782252592243
677,4.480,3.87179245968934
678,4.487,3.79705799540496
679,4.493,3.71064899622436
680,4.500,3.59436692245634
681,4.506,3.51102644015089
682,4.513,3.45313339175324
683,4.519,3.36008593155322
684,4.526,3.25885212615518
685,4.532,3.19083787733628
686,4.539,3.10994457811599
687,4.545,3.00746810513796
688,4.552,2.93695217026988
689,4.558,2.88227479675027
690,4.565,2.80273317103804
691,4.571,2.7269522498442
692,4.578,2.66789828831261
693,4.584,2.59189390496623
694,4.590,2.51343143794189
695,4.597,2.45860145612299
696,4.603,2.40163495811393
697,4.610,2.32525995461211
698,4.616,2.26501237816816
699,4.623,2.22220029991891
700,4.629,2.16031218425752
701,4.636,2.0983968171141
702,4.642,2.05490890211082
703,4.649,1.99786064965571
704,4.655,1.9213330378546
705,4.662,1.8652494878629
706,4.668,1.82886875936974
707,4.675,1.78241588312297
708,4.681,1.73639903058848
709,4.687,1.69912990378156
710,4.694,1.65466638572205
711,4.700,1.60946162735168
712,4.707,1.57952859950383
713,4.713,1.54852731356089
714,4.720,1.50648917740093
715,4.726,1.48182658617524
716,4.733,1.48546193387635
717,4.739,1.50044479868949
718,4.746,1.52643726223763
719,4.752,1.55604327230128
720,4.759,1.55407571529962
721,4.765,1.51789119747699
722,4.772,1.47740094549562
723,4.778,1.44167425257088
724,4.785,1.39828989319926
725,4.791,1.36321723584294
726,4.797,1.34079471643906
727,4.804,1.30829459898518
728,4.810,1.26927592703274
729,4.817,1.24374128838249
730,4.823,1.22124246482896
731,4.830,1.19102602156813
732,4.836,1.16541507876823
733,4.843,1.14822484391169
734,4.849,1.1273502086864
735,4.856,1.10626301190138
736,4.862,1.09178702465376
737,4.869,1.06878677383112
738,4.875,1.0376437801817
739,4.882,1.01555917915484
740,4.888,1.00266377786423
741,4.894,0.982148862201573
742,4.901,0.954859228109402
743,4.907,0.931008731047821
744,4.914,0.904939963350027
745,4.920,0.877274258806017
746,4.927,0.857914805980894
747,4.933,0.844523427717569
748,4.940,0.827273239600589
749,4.946,0.812432082493942
750,4.953,0.802240028219455
751,4.959,0.785115196919754
752,4.966,0.765750293798228
753,4.972,0.754588086763922
754,4.979,0.741801691401383
755,4.985,0.723336087186429
756,4.992,0.710184521964858
757,4.998,0.700548397923524
758,5.004,0.686039708897489
759,5.011,0.670631720964881
760,5.017,0.657572810782169
761,5.024,0.640791348155887
762,5.030,0.624794728211704
763,5.037,0.617480430438249
764,5.043,0.607849756693318
765,5.050,0.588997181433718
766,5.056,0.573049614157167
767,5.063,0.56262319713733
768,5.069,0.55007116452014
769,5.076,0.540200677733457
770,5.082,0.536407271436642
771,5.089,0.530548202802913
772,5.095,0.518159679077827
773,5.101,0.505373283715288
774,5.108,0.498287898390778
775,5.114,0.491616735592932
776,5.121,0.483675653733077
777,5.127,0.474944278894719
778,5.134,0.463362399037347
779,5.140,0.450881220273402
780,5.147,0.443534220721525
781,5.153,0.43625262472649
782,5.160,0.428774818060931
783,5.166,0.425106768581396
784,5.173,0.425313879844728
785,5.179,0.421487771769492
786,5.186,0.413475836056392
787,5.192,0.404444694915844
788,5.199,0.398607427467728
789,5.205,0.389134812318498
790,5.211,0.384856329641775
791,5.218,0.3815970523925
792,5.224,0.381967672547936
793,5.231,0.392911867726103
794,5.237,0.418005032367675
795,5.244,0.441343201567331
796,5.250,0.455628428440824
797,5.257,0.465711476787242
798,5.263,0.468741841587571
799,5.270,0.459748852521847
800,5.276,0.446362924554926
801,5.283,0.435522285008426
802,5.289,0.425689950296567
803,5.296,0.416015674180409
804,5.302,0.411208512752549
805,5.308,0.406379550139075
806,5.315,0.396241998828622
807,5.321,0.385297803650456
808,5.328,0.37770009046402
809,5.334,0.371770167977045
810,5.341,0.36835283213207
811,5.347,0.369497394376798
812,5.354,0.374669725663691
813,5.360,0.389570836030776
814,5.367,0.424959610578502
815,5.373,0.47284046448298
816,5.380,0.513548728320492
817,5.386,0.539737402539162
818,5.393,0.552801763018278
819,5.399,0.554938279208438
820,5.406,0.555123589286156
821,5.412,0.564023923313022
822,5.418,0.584070113484982
823,5.425,0.605195462344829
824,5.431,0.625132646588719
825,5.438,0.633760465795411
826,5.444,0.625421512298103
827,5.451,0.611697665954168
828,5.457,0.599200136301012
829,5.464,0.586348337381632
830,5.470,0.576461499705738
831,5.477,0.571196513379987
832,5.483,0.562813957511451
833,5.490,0.546948144680952
834,5.496,0.532363151505268
835,5.503,0.521506161069557
836,5.509,0.510643720337443
837,5.515,0.49448904179756
838,5.522,0.485850321998061
839,5.528,0.48126117242634
840,5.535,0.472676955590876
841,5.541,0.462670211394106
842,5.548,0.457290768843882
843,5.554,0.449088072756661
844,5.561,0.437413537860429
845,5.567,0.426992571136996
846,5.574,0.416010223884005
847,5.580,0.40739330527012
848,5.587,0.405556555382151
849,5.593,0.405829070202325
850,5.600,0.400057206311051
851,5.606,0.3941654358989
852,5.613,0.393059025728996
853,5.619,0.388922250758763
854,5.625,0.378637541445416
