#"+EI TIC Scan MBPR056_02_LQ1.d "
#Point,X(Minutes),Y(Counts)
0,0.101,0.349588000472588
1,0.108,0.333315325785096
2,0.114,0.315578622785639
3,0.121,0.299825678148894
4,0.127,0.28278438859762
5,0.134,0.264198549177223
6,0.140,0.249272780536739
7,0.147,0.240181164719436
8,0.153,0.231221311450209
9,0.159,0.220599786046902
10,0.166,0.211661893202356
11,0.172,0.207635815344451
12,0.179,0.202950924746163
13,0.185,0.19510373299403
14,0.192,0.19049204381134
15,0.198,0.184811613960915
16,0.205,0.180683054121174
17,0.211,0.175756598851411
18,0.218,0.173187229163912
19,0.224,0.170610539334854
20,0.231,0.166818706006864
21,0.237,0.163158635226951
22,0.244,0.16069906766285
23,0.250,0.155326083757938
24,0.257,0.152149142320974
25,0.263,0.150289826364778
26,0.269,0.148474431257941
27,0.276,0.148159665170869
28,0.282,0.147332489174609
29,0.289,0.143979864340209
30,0.295,0.140759002053885
31,0.302,0.139631700253672
32,0.308,0.140188031012219
33,0.315,0.140583318656449
34,0.321,0.139404775865318
35,0.328,0.135627582820448
36,0.334,0.132516522657522
37,0.341,0.13131601944171
38,0.347,0.1300789155181
39,0.354,0.129273699946519
40,0.360,0.129566505608912
41,0.366,0.128951613717887
42,0.373,0.128651487913934
43,0.379,0.126177280066713
44,0.386,0.125657550015965
45,0.392,0.125957675819918
46,0.399,0.126594528135623
47,0.405,0.124764492745667
48,0.412,0.12462541005603
49,0.418,0.125789312564042
50,0.425,0.12250988914524
51,0.431,0.119559872096631
52,0.438,0.117561473450798
53,0.444,0.117737156848234
54,0.451,0.116983182267572
55,0.457,0.118410609871738
56,0.464,0.117180826089687
57,0.470,0.116339009810307
58,0.476,0.116404891084346
59,0.483,0.115204387868534
60,0.489,0.112927823843429
61,0.496,0.113894082529326
62,0.502,0.116302409102508
63,0.509,0.11412832705924
64,0.515,0.111910324166613
65,0.522,0.110043688068857
66,0.528,0.112473975066719
67,0.535,0.113374352478578
68,0.541,0.115328830275051
69,0.548,0.116134045846632
70,0.554,0.112642338322595
71,0.561,0.110987986330075
72,0.567,0.111800522043215
73,0.573,0.113198669081142
74,0.580,0.112554496623878
75,0.586,0.11202012629001
76,0.593,0.112935143984988
77,0.599,0.113191348939582
78,0.606,0.109970486653259
79,0.612,0.108872465419285
80,0.619,0.107745163619072
81,0.625,0.105768725397919
82,0.632,0.105168473790014
83,0.638,0.104560902040548
84,0.645,0.105907808087556
85,0.651,0.108081890130824
86,0.658,0.108513778482854
87,0.664,0.108586979898452
88,0.671,0.10951663787655
89,0.677,0.112422734075801
90,0.683,0.112971744692788
91,0.690,0.112247050678365
92,0.696,0.110929425197596
93,0.703,0.109465396885631
94,0.709,0.107305955125483
95,0.716,0.103894769158604
96,0.722,0.103104193870143
97,0.729,0.105527160726445
98,0.735,0.106742304225376
99,0.742,0.107386476682641
100,0.748,0.108169731829542
101,0.755,0.106244534599308
102,0.761,0.103345758541617
103,0.768,0.105087952232855
104,0.774,0.105131873082214
105,0.780,0.106068851201872
106,0.787,0.106127412334351
107,0.793,0.105805326105718
108,0.800,0.104604822889907
109,0.806,0.103316477975378
110,0.813,0.102452701271318
111,0.819,0.10279674792463
112,0.826,0.102233097024524
113,0.832,0.104282736661275
114,0.839,0.10449502076651
115,0.845,0.103067593162344
116,0.852,0.102335579006361
117,0.858,0.102291658157002
118,0.865,0.102760147216831
119,0.871,0.10237949985572
120,0.878,0.103909409441724
121,0.884,0.103916729583283
122,0.890,0.104839067419821
123,0.897,0.10362392392089
124,0.903,0.103155434861062
125,0.910,0.101515723151661
126,0.916,0.0999126121500588
127,0.923,0.102291658157002
128,0.929,0.103660524628689
129,0.936,0.105885847662876
130,0.942,0.107283994700803
131,0.949,0.106808185499414
132,0.955,0.106259174882428
133,0.962,0.10530755647965
134,0.968,0.103938690007963
135,0.975,0.10237217971416
136,0.981,0.100615345739802
137,0.987,0.10195493164525
138,0.994,0.10112043550743
139,1.000,0.101896370512772
140,1.007,0.103865488592365
141,1.013,0.104399858926232
142,1.020,0.10320667585198
143,1.026,0.102511262403797
144,1.033,0.103272557126019
145,1.039,0.102130615042686
146,1.046,0.0994075223824308
147,1.052,0.0996417669123453
148,1.059,0.100410381776127
149,1.065,0.101237557772387
150,1.072,0.101874410088092
151,1.078,0.10322863627666
152,1.085,0.101427881452943
153,1.091,0.101464482160742
154,1.097,0.101764607964695
155,1.104,0.101464482160742
156,1.110,0.102291658157002
157,1.117,0.104524301332749
158,1.123,0.104846387561381
159,1.130,0.104956189684779
160,1.136,0.103184715427301
161,1.143,0.100337180360529
162,1.149,0.100337180360529
163,1.156,0.102460021412878
164,1.162,0.102269697732323
165,1.169,0.102240417166083
166,1.175,0.101083834799631
167,1.182,0.101676766265977
168,1.188,0.102298978298562
169,1.194,0.0998247704513409
170,1.201,0.0985437456783714
171,1.207,0.0992245188434352
172,1.214,0.0997442488941828
173,1.220,0.100959392393114
174,1.227,0.102643024951874
175,1.233,0.103272557126019
176,1.240,0.100834949986597
177,1.246,0.0982655802990981
178,1.253,0.0971455986404448
179,1.259,0.0974896452937565
180,1.266,0.0986828283680081
181,1.272,0.100805669420358
182,1.279,0.102020812919289
183,1.285,0.101325399471105
184,1.292,0.100000453848777
185,1.298,0.100520183899524
186,1.304,0.0999199322916186
187,1.311,0.0981923788834998
188,1.317,0.09818505874194
189,1.324,0.100022414273456
190,1.330,0.0987413895004867
191,1.337,0.0974018035950386
192,1.343,0.0976214078418334
193,1.350,0.0967283505715347
194,1.356,0.0968674332611714
195,1.363,0.0969918756676884
196,1.369,0.0967795915624535
197,1.376,0.097387163311919
198,1.382,0.0987267492173671
199,1.389,0.097972774636705
200,1.395,0.0980679364769828
201,1.401,0.0986389075186492
202,1.408,0.0980386559107435
203,1.414,0.0965819477403382
204,1.421,0.0963184226441845
205,1.427,0.0965965880234578
206,1.434,0.097218800056043
207,1.440,0.0965965880234578
208,1.447,0.0969479548183295
209,1.453,0.0977531703899103
210,1.460,0.0961939802376674
211,1.466,0.0975482064262352
212,1.473,0.099275759834354
213,1.479,0.101252198055507
214,1.486,0.100483583191725
215,1.492,0.0990561555875592
216,1.499,0.0979947350613845
217,1.505,0.0970211562339277
218,1.511,0.096882073544291
219,1.518,0.0956303293375609
220,1.524,0.0955498077804028
221,1.531,0.0951911208439713
222,1.537,0.0941223801762368
223,1.544,0.0952789625426892
224,1.550,0.0984559039796535
225,1.557,0.0982948608653374
226,1.563,0.0980459760523033
227,1.570,0.0972700410469618
228,1.576,0.0980240156276238
229,1.583,0.096882073544291
230,1.589,0.0966697894390561
231,1.596,0.0973066417547609
232,1.602,0.0985730262446107
233,1.608,0.0977531703899103
234,1.615,0.0958645738674753
235,1.621,0.0937929738060446
236,1.628,0.0911577228445075
237,1.634,0.0921971829460027
238,1.641,0.0940930996099975
239,1.647,0.0944225059801896
240,1.654,0.095959735707753
241,1.660,0.0993928820993112
242,1.667,0.0994880439395889
243,1.673,0.0994880439395889
244,1.680,0.0986242672355295
245,1.686,0.097892253079547
246,1.693,0.0977824509561496
247,1.699,0.097848332230188
248,1.706,0.0994880439395889
249,1.712,0.10112775564899
250,1.718,0.101486442585421
251,1.725,0.100249338661811
252,1.731,0.0976872891158718
253,1.738,0.0955498077804028
254,1.744,0.0947079915010228
255,1.751,0.0952496819764499
256,1.757,0.096172019812988
257,1.764,0.0984193032718544
258,1.770,0.0986974686511278
259,1.777,0.0985291053952518
260,1.783,0.0977751308145897
261,1.790,0.0968015519871329
262,1.796,0.0964501851922613
263,1.803,0.0965160664662997
264,1.809,0.094744592208822
265,1.815,0.0947811929166211
266,1.822,0.0951032791452534
267,1.828,0.0950227575880953
268,1.835,0.0946933512179032
269,1.841,0.0954034049492063
270,1.848,0.0954619660816849
271,1.854,0.0949861568802962
272,1.861,0.0939247363541215
273,1.867,0.0948983151815783
274,1.874,0.0957474516025181
275,1.880,0.0967942318455731
276,1.887,0.0979215336457862
277,1.893,0.0981923788834998
278,1.900,0.0984559039796535
279,1.906,0.0974530445859574
280,1.913,0.0952423618348901
281,1.919,0.0936392508332883
282,1.925,0.0941297003177966
283,1.932,0.0952643222595696
284,1.938,0.0965014261831801
285,1.945,0.0974530445859574
286,1.951,0.0982655802990981
287,1.958,0.0980825767601024
288,1.964,0.0976872891158718
289,1.971,0.0981264976094614
290,1.977,0.0982875407237775
291,1.984,0.0958206530181163
292,1.990,0.0939832974866001
293,1.997,0.0949568763140569
294,2.003,0.095498566789484
295,2.010,0.0952130812686508
296,2.016,0.0941516607424761
297,2.022,0.0961134586805093
298,2.029,0.0949861568802962
299,2.035,0.0940564989021984
300,2.042,0.0942980635736726
301,2.048,0.0956815703284796
302,2.055,0.0967356707130945
303,2.061,0.0967283505715347
304,2.068,0.0968601131196116
305,2.074,0.0960548975480307
306,2.081,0.0959450954246334
307,2.087,0.095498566789484
308,2.094,0.0972554007638421
309,2.100,0.0973066417547609
310,2.107,0.0955058869310438
311,2.113,0.0951398798530526
312,2.120,0.09566693004536
313,2.126,0.0954253653738857
314,2.132,0.0943493045645914
315,2.139,0.095791372451877
316,2.145,0.0943785851308307
317,2.152,0.0960182968402316
318,2.158,0.0963477032104238
319,2.165,0.0966844297221757
320,2.171,0.0954253653738857
321,2.178,0.0951984409855312
322,2.184,0.0964867859000604
323,2.191,0.0966185484481373
324,2.197,0.0968893936858509
325,2.204,0.0985437456783714
326,2.210,0.0971602389235644
327,2.217,0.0963769837766631
328,2.223,0.0957840523103172
329,2.229,0.0963843039182229
330,2.236,0.0968381526949321
331,2.242,0.0964721456169408
332,2.249,0.0983241414315767
333,2.255,0.103828887884565
334,2.262,0.122034079943852
335,2.268,0.162551063477486
336,2.275,0.229332714927774
337,2.281,0.312350440357756
338,2.288,0.382880004286675
339,2.294,0.424385206930886
340,2.301,0.445232970093269
341,2.307,0.457699171169652
342,2.314,0.457962696265805
343,2.320,0.453914657983222
344,2.327,0.451308687587924
345,2.333,0.443637179233227
346,2.339,0.43174926934007
347,2.346,0.420673895160054
348,2.352,0.412204491375336
349,2.359,0.402673667064443
350,2.365,0.395763453431968
351,2.372,0.398113218872672
352,2.378,0.396612589852908
353,2.385,0.40825161493303
354,2.391,0.402688307347563
355,2.398,0.311647706768013
356,2.404,0.149118603715206
357,2.411,0.0306567528525494
358,2.417,0
359,2.424,0
360,2.430,0
361,2.436,0
362,2.443,0
363,2.449,0
364,2.456,0
365,2.462,0
366,2.469,0
367,2.475,0
368,2.482,0
369,2.488,0
370,2.495,0
371,2.501,0
372,2.508,0
373,2.514,0
374,2.521,0
375,2.527,0
376,2.534,0
377,2.540,0
378,2.546,0
379,2.553,0
380,2.559,0
381,2.566,0
382,2.572,0
383,2.579,0
384,2.585,0
385,2.592,0
386,2.598,0
387,2.605,0
388,2.611,0
389,2.618,0
390,2.624,0
391,2.631,0
392,2.637,0
393,2.643,0
394,2.650,0
395,2.656,0
396,2.663,0
397,2.669,0
398,2.676,0
399,2.682,0
400,2.689,0
401,2.695,0
402,2.702,0
403,2.708,0
404,2.715,0
405,2.721,0
406,2.728,0
407,2.734,0
408,2.741,0
409,2.747,0
410,2.753,0
411,2.760,0
412,2.766,0
413,2.773,0
414,2.779,0
415,2.786,0
416,2.792,0
417,2.799,0
418,2.805,0
419,2.812,0
420,2.818,0
421,2.825,0
422,2.831,0
423,2.838,0
424,2.844,0
425,2.850,0
426,2.857,0
427,2.863,0
428,2.870,0
429,2.876,0
430,2.883,0
431,2.889,0
432,2.896,0
433,2.902,0
434,2.909,0
435,2.915,0
436,2.922,0
437,2.928,0
438,2.935,0
439,2.941,0
440,2.948,0
441,2.954,0
442,2.960,0
443,2.967,0
444,2.973,0
445,2.980,0
446,2.986,0
447,2.993,0
448,2.999,0
449,3.006,0
450,3.012,0
451,3.019,0
452,3.025,0
453,3.032,0
454,3.038,0
455,3.045,0
456,3.051,0
457,3.057,0
458,3.064,0
459,3.070,0
460,3.077,0
461,3.083,0
462,3.090,0
463,3.096,0
464,3.103,0
465,3.109,0
466,3.116,0
467,3.122,0
468,3.129,0
469,3.135,0
470,3.142,0
471,3.148,0
472,3.155,0
473,3.161,0
474,3.167,0
475,3.174,0
476,3.180,0
477,3.187,0
478,3.193,0
479,3.200,0
480,3.206,0
481,3.213,0
482,3.219,0
483,3.226,0
484,3.232,0
485,3.239,0
486,3.245,0
487,3.252,0
488,3.258,0
489,3.264,0
490,3.271,0
491,3.277,0
492,3.284,0
493,3.290,0
494,3.297,0
495,3.303,0
496,3.310,0
497,3.316,0
498,3.323,0
499,3.329,0
500,3.336,0
501,3.342,0
502,3.349,0
503,3.355,0
504,3.362,0
505,3.368,0
506,3.374,0
507,3.381,0
508,3.387,0
509,3.394,0
510,3.400,0
511,3.407,0
512,3.413,0
513,3.420,0
514,3.426,0
515,3.433,0
516,3.439,0
517,3.446,0
518,3.452,0
519,3.459,0
520,3.465,0
521,3.471,0
522,3.478,0
523,3.484,0
524,3.491,0
525,3.497,0
526,3.504,0
527,3.510,0
528,3.517,0
529,3.523,0
530,3.530,0
531,3.536,0
532,3.543,0
533,3.549,0
534,3.556,0
535,3.562,0
536,3.569,0
537,3.575,0
538,3.581,0
539,3.588,0
540,3.594,0
541,3.601,0
542,3.607,0
543,3.614,0
544,3.620,0
545,3.627,0
546,3.633,0
547,3.640,0
548,3.646,0
549,3.653,0
550,3.659,0
551,3.666,0
552,3.672,0
553,3.678,0
554,3.685,0
555,3.691,0
556,3.698,0
557,3.704,0
558,3.711,0
559,3.717,0
560,3.724,0
561,3.730,0
562,3.737,0
563,3.743,0
564,3.750,0
565,3.756,0
566,3.763,0
567,3.769,0
568,3.776,0
569,3.782,0
570,3.788,0
571,3.795,0
572,3.801,0
573,3.808,0
574,3.814,0
575,3.821,0
576,3.827,0
577,3.834,0
578,3.840,0
579,3.847,0
580,3.853,0
581,3.860,0
582,3.866,0
583,3.873,0
584,3.879,0
585,3.885,0
586,3.892,0
587,3.898,0
588,3.905,0
589,3.911,0
590,3.918,0
591,3.924,0
592,3.931,0
593,3.937,0
594,3.944,0
595,3.950,0
596,3.957,0
597,3.963,0
598,3.970,0
599,3.976,0
600,3.983,0
601,3.989,0
602,3.995,0
603,4.002,0
604,4.008,0
605,4.015,0
606,4.021,0
607,4.028,0
608,4.034,0
609,4.041,0
610,4.047,0
611,4.054,0
612,4.060,0
613,4.067,0
614,4.073,0
615,4.080,0
616,4.086,0
617,4.092,0
618,4.099,0
619,4.105,0
620,4.112,0
621,4.118,0
622,4.125,0
623,4.131,0
624,4.138,0
625,4.144,0
626,4.151,0
627,4.157,0
628,4.164,0
629,4.170,0
630,4.177,0
631,4.183,0
632,4.190,0
633,4.196,0
634,4.202,0
635,4.209,0
636,4.215,0
637,4.222,0
638,4.228,0
639,4.235,0
640,4.241,0
641,4.248,0
642,4.254,0
643,4.261,0
644,4.267,0
645,4.274,0
646,4.280,0
647,4.287,0
648,4.293,0
649,4.299,0
650,4.306,0
651,4.312,0
652,4.319,0
653,4.325,0
654,4.332,0
655,4.338,0
656,4.345,0
657,4.351,0
658,4.358,0
659,4.364,0
660,4.371,0
661,4.377,0
662,4.384,0
663,4.390,0
664,4.397,0
665,4.403,0
666,4.409,0.0425007418963471
667,4.416,0.256431878982249
668,4.422,0.669434265787605
669,4.429,1.64056084582186
670,4.435,2.99002162223414
671,4.442,3.96259027015568
672,4.448,4.14992733295474
673,4.455,4.02232994542542
674,4.461,3.91884510419416
675,4.468,3.84420894085018
676,4.474,3.73982372220707
677,4.481,3.62199872366012
678,4.487,3.54426614043633
679,4.494,3.46536233456297
680,4.500,3.35758789037766
681,4.506,3.27907937214853
682,4.513,3.22559841791244
683,4.519,3.14315166352413
684,4.526,3.05599073797129
685,4.532,2.99431854532976
686,4.539,2.91829155508941
687,4.545,2.82278566815837
688,4.552,2.75303935937635
689,4.558,2.69782353159058
690,4.565,2.62991457834008
691,4.571,2.5679788606024
692,4.578,2.51662074741866
693,4.584,2.44555681315588
694,4.591,2.37078156712226
695,4.597,2.32536008874354
696,4.604,2.27539280245617
697,4.610,2.20423370635311
698,4.616,2.14767829266189
699,4.623,2.10761515790497
700,4.629,2.05185031950222
701,4.636,1.99603424010855
702,4.642,1.95750101493763
703,4.649,1.90677243392804
704,4.655,1.83909772520745
705,4.662,1.78273995533835
706,4.668,1.73658646280365
707,4.675,1.68008961024492
708,4.681,1.63744246551738
709,4.688,1.61058486613438
710,4.694,1.57075597590736
711,4.701,1.52523933568837
712,4.707,1.49762044158315
713,4.713,1.46831059477761
714,4.720,1.42180573544803
715,4.726,1.3898533175394
716,4.733,1.3980152753786
717,4.739,1.45357514981768
718,4.746,1.61444990087796
719,4.752,1.94332190073625
720,4.759,2.37629363371681
721,4.765,2.76737219655049
722,4.772,3.00920771326244
723,4.778,3.05579309414917
724,4.785,2.93001842186825
725,4.791,2.74353781563169
726,4.798,2.58881930362322
727,4.804,2.45417261977179
728,4.810,2.32937884645988
729,4.817,2.24574622913888
730,4.823,2.19292408764318
731,4.830,2.13305264982536
732,4.836,2.08250707235477
733,4.843,2.05269945592316
734,4.849,2.01882916092585
735,4.856,1.98657661721325
736,4.862,1.97743376040503
737,4.869,1.97036250365824
738,4.875,1.93488177751777
739,4.882,1.89071936348734
740,4.888,1.85550216244302
741,4.895,1.81239384879721
742,4.901,1.75613856090995
743,4.908,1.69522766299064
744,4.914,1.62683558039719
745,4.920,1.55957079960395
746,4.927,1.50582632027171
747,4.933,1.46293029073113
748,4.940,1.41790409999665
749,4.946,1.3753301566847
750,4.953,1.33806331600363
751,4.959,1.30299983793207
752,4.966,1.27371927169276
753,4.972,1.25402077075527
754,4.979,1.22963005907793
755,4.985,1.19637465597165
756,4.992,1.17503644332476
757,4.998,1.16706480916611
758,5.005,1.15455468724036
759,5.011,1.1378208436346
760,5.017,1.12454942698664
761,5.024,1.09630832084883
762,5.030,1.05531552811381
763,5.037,1.01897102526927
764,5.043,0.99274295806042
765,5.050,0.964772697160327
766,5.056,0.94409329725382
767,5.063,0.932205387360663
768,5.069,0.91763098551505
769,5.076,0.901519353941874
770,5.082,0.899455074022003
771,5.089,0.895787683100531
772,5.095,0.88531988066998
773,5.102,0.875379128431737
774,5.108,0.862700643250119
775,5.115,0.835315993674812
776,5.121,0.805347334128886
777,5.127,0.785546351209558
778,5.134,0.76742168070743
779,5.140,0.740688523730947
780,5.147,0.716414934318566
781,5.153,0.69778517404881
782,5.160,0.682024909270505
783,5.166,0.665986479112928
784,5.173,0.65163900165567
785,5.179,0.636969437969779
786,5.186,0.624371474345319
787,5.192,0.614635686070751
788,5.199,0.60460709213379
789,5.205,0.584732907798864
790,5.212,0.567230449329321
791,5.218,0.555057053915331
792,5.224,0.546682811970891
793,5.231,0.545621391444716
794,5.237,0.555862269486912
795,5.244,0.568577355376329
796,5.250,0.584279059022155
797,5.257,0.608150040648746
798,5.263,0.630403270990616
799,5.270,0.635761614612408
800,5.276,0.627592336631643
801,5.283,0.614774768760388
802,5.289,0.596518335710183
803,5.296,0.574806795843741
804,5.302,0.558695164270565
805,5.309,0.545138262101768
806,5.315,0.527745605755622
807,5.322,0.513002840654134
808,5.328,0.503354894078284
809,5.334,0.492316120606067
810,5.341,0.481943480015794
811,5.347,0.481321267983209
812,5.354,0.484029720360344
813,5.360,0.479278948488017
814,5.367,0.473210551134922
815,5.373,0.475574956858746
816,5.380,0.485984198156818
817,5.386,0.501195452318135
818,5.393,0.519649529190455
819,5.399,0.528909508263635
820,5.406,0.526691505371008
821,5.412,0.520645068442592
822,5.419,0.511868218712361
823,5.425,0.500675722267387
824,5.431,0.496488601295167
825,5.438,0.500844085523263
826,5.444,0.503303653087365
827,5.451,0.499694823298371
828,5.457,0.49385335033363
829,5.464,0.483649072999233
830,5.470,0.47203200834379
831,5.477,0.462508504174457
832,5.483,0.46572936646078
833,5.490,0.467983970061207
834,5.496,0.466073413114092
835,5.503,0.465765967168579
836,5.509,0.46362848583311
837,5.516,0.455634891249781
838,5.522,0.445459894481623
839,5.529,0.436155994559085
840,5.535,0.424238804099689
841,5.541,0.414612817948519
842,5.548,0.406538701808031
843,5.554,0.398237661279189
844,5.561,0.391085882975239
845,5.567,0.383860903255691
846,5.574,0.375157254941059
847,5.580,0.363562150710295
848,5.587,0.356878861466175
849,5.593,0.358167206380704
850,5.600,0.360377889131771
851,5.606,0.367295422905806
852,5.613,0.382016227582615
853,5.619,0.39693467608154
854,5.626,0.404598864294677
855,5.632,0.407256075680894
856,5.638,0.403200717256751
857,5.645,0.394892356586349
858,5.651,0.3877039775746
859,5.658,0.380932846631761
860,5.664,0.373656625921295
