#"+EI TIC Scan LOHC008_01.d "
#Point,X(Minutes),Y(Counts)
0,0.101,1.38238794279555
1,0.108,1.42139993197521
2,0.114,1.44892800356335
3,0.121,1.48300099916143
4,0.127,1.51954349155031
5,0.134,1.52731558881212
6,0.140,1.49075794613618
7,0.147,1.44148921261686
8,0.153,1.37917608193881
9,0.160,1.3144237550441
10,0.166,1.24547479863375
11,0.172,1.16872344438746
12,0.179,1.09748679463104
13,0.185,1.03702199897433
14,0.192,0.986238236748991
15,0.198,0.93169720333276
16,0.205,0.881004342829786
17,0.211,0.831735609310457
18,0.218,0.795087064912162
19,0.224,0.760105052090475
20,0.231,0.722668692765056
21,0.237,0.687489726211587
22,0.244,0.655189314199531
23,0.250,0.625509901848865
24,0.257,0.600163471597378
25,0.263,0.576347220338957
26,0.270,0.552334015348756
27,0.276,0.530638804278744
28,0.282,0.515049158893938
29,0.289,0.497959635090186
30,0.295,0.482657845159521
31,0.302,0.466992448339415
32,0.308,0.457356865769214
33,0.315,0.444176116026958
34,0.321,0.436540371348686
35,0.328,0.429601539875177
36,0.334,0.426101823564302
37,0.341,0.412557466932605
38,0.347,0.399149462884448
39,0.354,0.389029071128325
40,0.360,0.382529597979558
41,0.367,0.375348361913087
42,0.373,0.369500351107903
43,0.379,0.363334184274457
44,0.386,0.356455953949187
45,0.392,0.347411232574329
46,0.399,0.340654204545541
47,0.405,0.329988402455256
48,0.412,0.324231293372431
49,0.418,0.331261026568301
50,0.425,0.324685801984233
51,0.431,0.315125970849333
52,0.438,0.310202127554812
53,0.444,0.311580803677278
54,0.451,0.307475075884
55,0.457,0.29800614647146
56,0.464,0.290703708108509
57,0.470,0.290188598348467
58,0.477,0.292006632795675
59,0.483,0.292097534518035
60,0.489,0.292339939110996
61,0.496,0.291249118442672
62,0.502,0.287810003280037
63,0.509,0.286946436917614
64,0.515,0.2743565483707
65,0.522,0.271387092106928
66,0.528,0.272417311627012
67,0.535,0.273780837462418
68,0.541,0.272523363636432
69,0.548,0.272265808756411
70,0.554,0.271265889810447
71,0.561,0.26484216809698
72,0.567,0.257130671983407
73,0.574,0.254358169451416
74,0.580,0.255630793564461
75,0.586,0.251615967493544
76,0.593,0.247222384246125
77,0.599,0.248040499747369
78,0.606,0.246767875634324
79,0.612,0.246979979653164
80,0.619,0.248904066109793
81,0.625,0.249388875295715
82,0.632,0.248570759794471
83,0.638,0.246722424773143
84,0.645,0.248601060368591
85,0.651,0.245798257262479
86,0.658,0.246283066448402
87,0.664,0.249161620989814
88,0.671,0.250843302853481
89,0.677,0.249267672999234
90,0.684,0.247313285968486
91,0.690,0.244434731427074
92,0.696,0.238677622344249
93,0.703,0.23419313737447
94,0.709,0.234238588235651
95,0.716,0.23407193507799
96,0.722,0.232890212687305
97,0.729,0.233253819576746
98,0.735,0.230435866183575
99,0.742,0.230223762164734
100,0.748,0.228042120828084
101,0.755,0.22707250245624
102,0.761,0.222557716912341
103,0.768,0.221224491651056
104,0.774,0.219557960074449
105,0.781,0.218845896582626
106,0.787,0.221527497392257
107,0.793,0.224254549063068
108,0.800,0.227133103604481
109,0.806,0.225527173176114
110,0.813,0.226163485232636
111,0.819,0.228102721976325
112,0.826,0.226708895566799
113,0.832,0.223830341025387
114,0.839,0.223406132987705
115,0.845,0.224224248488948
116,0.852,0.220769983039254
117,0.858,0.21517952711409
118,0.865,0.216603654097736
119,0.871,0.218633792563785
120,0.878,0.22455755480427
121,0.884,0.225724126907895
122,0.891,0.221951705429939
123,0.897,0.219012549740286
124,0.903,0.218588341702604
125,0.910,0.218330786822583
126,0.916,0.21511892596585
127,0.923,0.216936960413057
128,0.929,0.21755812218252
129,0.936,0.218709543999085
130,0.942,0.217967179933142
131,0.949,0.214618966492868
132,0.955,0.208907308271223
133,0.962,0.209589071188926
134,0.968,0.21289183376802
135,0.975,0.215952191754153
136,0.981,0.214709868215228
137,0.988,0.214558365344627
138,0.994,0.210149631810149
139,1.000,0.2080437419088
140,1.007,0.210058730087788
141,1.013,0.210770793579611
142,1.020,0.209725423772467
143,1.026,0.207392279565217
144,1.033,0.209498169466566
145,1.039,0.208346747650001
146,1.046,0.206422661193373
147,1.052,0.206998372101655
148,1.059,0.2079679904735
149,1.065,0.206195406887472
150,1.072,0.206392360619253
151,1.078,0.210755643292551
152,1.085,0.214043255584585
153,1.091,0.211937365683236
154,1.098,0.207634684158178
155,1.104,0.207468031000517
156,1.110,0.205180337654448
157,1.117,0.203771360957862
158,1.123,0.204589476459105
159,1.130,0.206225707461592
160,1.136,0.206846869231055
161,1.143,0.21037688611605
162,1.149,0.207771036741719
163,1.156,0.209346666595965
164,1.162,0.207074123536956
165,1.169,0.203907713541402
166,1.175,0.200483748665828
167,1.182,0.200498898952888
168,1.188,0.202741141437777
169,1.195,0.205589395405069
170,1.201,0.209589071188926
171,1.207,0.209422418031266
172,1.214,0.207165025259316
173,1.220,0.20572574798861
174,1.227,0.209967828365428
175,1.233,0.21036173582899
176,1.240,0.207619533871118
177,1.246,0.207058973249896
178,1.253,0.20575604856273
179,1.259,0.204044066124943
180,1.266,0.200044390341086
181,1.272,0.199120222830422
182,1.279,0.200574650388188
183,1.285,0.19636287058549
184,1.292,0.194469084702982
185,1.298,0.194620587573583
186,1.305,0.196059864844289
187,1.311,0.193075258293457
188,1.317,0.195287200204226
189,1.324,0.194923593314784
190,1.330,0.192348044514573
191,1.337,0.193529766905258
192,1.343,0.193560067479379
193,1.350,0.194650888147703
194,1.356,0.197226436947914
195,1.363,0.194847841879484
196,1.369,0.197574893550296
197,1.376,0.199392927997503
198,1.382,0.200589800675248
199,1.389,0.199286875988083
200,1.395,0.198423309625659
201,1.402,0.197771847282076
202,1.408,0.19627196886313
203,1.414,0.19624166828901
204,1.421,0.193166160015817
205,1.427,0.191181472410949
206,1.434,0.188984680787239
207,1.440,0.187424201220053
208,1.447,0.185772819930506
209,1.453,0.189484640260221
210,1.460,0.192514697672234
211,1.466,0.188969530500179
212,1.473,0.184894103281022
213,1.479,0.187939310980095
214,1.486,0.195393252213646
215,1.492,0.198786916515101
216,1.499,0.197923350152677
217,1.505,0.192999506858156
218,1.512,0.188105964137756
219,1.518,0.188908929351939
220,1.524,0.189514940834341
221,1.531,0.188666524758978
222,1.537,0.188515021888377
223,1.544,0.191999587912192
224,1.550,0.188954380213119
225,1.557,0.190136102603804
226,1.563,0.195772009390148
227,1.570,0.196847679771412
228,1.576,0.197287038096154
229,1.583,0.194999344750085
230,1.589,0.197271887809094
231,1.596,0.195787159677208
232,1.602,0.195878061399568
233,1.609,0.192408645662814
234,1.615,0.188787727055458
235,1.621,0.191969287338072
236,1.628,0.195362951639526
237,1.634,0.202589638567177
238,1.641,0.200044390341086
239,1.647,0.195196298481865
240,1.654,0.190787564947387
241,1.660,0.189848247149663
242,1.667,0.19390852408176
243,1.673,0.193408564608778
244,1.680,0.191317824994489
245,1.686,0.191954137051012
246,1.693,0.193757021211159
247,1.699,0.193696420062919
248,1.706,0.188484721314257
249,1.712,0.186954542321191
250,1.719,0.187015143469431
251,1.725,0.190090651742624
252,1.731,0.18918163451902
253,1.738,0.18909073279666
254,1.744,0.190166403177924
255,1.751,0.193226761164057
256,1.757,0.192135940495733
257,1.764,0.189878547723783
258,1.770,0.188742276194278
259,1.777,0.18910588308372
260,1.783,0.182560959073772
261,1.790,0.181954947591369
262,1.796,0.183833583186817
263,1.803,0.190802715234447
264,1.809,0.191014819253288
265,1.816,0.18919678480608
266,1.822,0.190772414660327
267,1.828,0.194014576091181
268,1.835,0.194620587573583
269,1.841,0.187227247488272
270,1.848,0.182470057351412
271,1.854,0.184288091798619
272,1.861,0.183621479167977
273,1.867,0.183560878019736
274,1.874,0.184606247826881
275,1.880,0.185060756438683
276,1.887,0.186590935431749
277,1.893,0.188984680787239
278,1.900,0.18912103337078
279,1.906,0.191090570688588
280,1.913,0.191317824994489
281,1.919,0.190833015808567
282,1.926,0.18919678480608
283,1.932,0.188954380213119
284,1.938,0.190196703752044
285,1.945,0.192878304561676
286,1.951,0.193120709154637
287,1.958,0.192469246811054
288,1.964,0.190651212363846
289,1.971,0.183121519694994
290,1.977,0.179106693624077
291,1.984,0.180470219459483
292,1.990,0.183242721991475
293,1.997,0.185106207299863
294,2.003,0.183257872278535
295,2.010,0.187651455525954
296,2.016,0.186287929690548
297,2.023,0.185818270791686
298,2.029,0.185121357586923
299,2.035,0.18445474495628
300,2.042,0.185484964476364
301,2.048,0.183379074575016
302,2.055,0.183545727732676
303,2.061,0.185181958735163
304,2.068,0.1890755825096
305,2.074,0.187984761841275
306,2.081,0.187666605813014
307,2.087,0.188121114424816
308,2.094,0.188227166434236
309,2.100,0.188515021888377
310,2.107,0.185045606151623
311,2.113,0.184030536918598
312,2.120,0.183500276871496
313,2.126,0.182333704767871
314,2.133,0.182773063092613
315,2.139,0.183530577445616
316,2.145,0.183666930029157
317,2.152,0.18437899352098
318,2.158,0.188242316721296
319,2.165,0.188333218443656
320,2.171,0.187484802368293
321,2.178,0.185394062754004
322,2.184,0.183348774000895
323,2.191,0.172152711863508
324,2.197,0.123308186381861
325,2.204,0.0521927389219207
326,2.210,0.0089386693654378
327,2.217,0
328,2.223,0
329,2.230,0
330,2.236,0
331,2.242,0
332,2.249,0
333,2.255,0
334,2.262,0
335,2.268,0
336,2.275,0
337,2.281,0
338,2.288,0
339,2.294,0
340,2.301,0
341,2.307,0
342,2.314,0
343,2.320,0
344,2.327,0
345,2.333,0
346,2.340,0
347,2.346,0
348,2.352,0
349,2.359,0
350,2.365,0
351,2.372,0
352,2.378,0
353,2.385,0
354,2.391,0
355,2.398,0
356,2.404,0
357,2.411,0
358,2.417,0
359,2.424,0
360,2.430,0
361,2.437,0
362,2.443,0
363,2.449,0
364,2.456,0
365,2.462,0
366,2.469,0
367,2.475,0
368,2.482,0
369,2.488,0
370,2.495,0
371,2.501,0
372,2.508,0
373,2.514,0
374,2.521,0
375,2.527,0
376,2.534,0
377,2.540,0
378,2.547,0
379,2.553,0
380,2.559,0
381,2.566,0
382,2.572,0
383,2.579,0
384,2.585,0
385,2.592,0
386,2.598,0
387,2.605,0
388,2.611,0
389,2.618,0
390,2.624,0
391,2.631,0
392,2.637,0
393,2.644,0
394,2.650,0
395,2.656,0
396,2.663,0
397,2.669,0
398,2.676,0
399,2.682,0
400,2.689,0
401,2.695,0
402,2.702,0
403,2.708,0
404,2.715,0
405,2.721,0
406,2.728,0
407,2.734,0
408,2.741,0
409,2.747,0
410,2.754,0
411,2.760,0
412,2.766,0
413,2.773,0
414,2.779,0
415,2.786,0
416,2.792,0
417,2.799,0
418,2.805,0
419,2.812,0
420,2.818,0
421,2.825,0
422,2.831,0
423,2.838,0
424,2.844,0
425,2.851,0
426,2.857,0
427,2.863,0
428,2.870,0
429,2.876,0
430,2.883,0
431,2.889,0
432,2.896,0
433,2.902,0
434,2.909,0
435,2.915,0
436,2.922,0
437,2.928,0
438,2.935,0
439,2.941,0
440,2.948,0
441,2.954,0
442,2.961,0
443,2.967,0
444,2.973,0
445,2.980,0
446,2.986,0
447,2.993,0
448,2.999,0
449,3.006,0
450,3.012,0
451,3.019,0
452,3.025,0
453,3.032,0
454,3.038,0
455,3.045,0
456,3.051,0
457,3.058,0
458,3.064,0
459,3.070,0
460,3.077,0
461,3.083,0
462,3.090,0
463,3.096,0
464,3.103,0
465,3.109,0
466,3.116,0
467,3.122,0
468,3.129,0
469,3.135,0
470,3.142,0
471,3.148,0
472,3.155,0
473,3.161,0
474,3.168,0
475,3.174,0
476,3.180,0
477,3.187,0
478,3.193,0
479,3.200,0
480,3.206,0
481,3.213,0
482,3.219,0
483,3.226,0
484,3.232,0
485,3.239,0
486,3.245,0
487,3.252,0
488,3.258,0
489,3.265,0
490,3.271,0
491,3.277,0
492,3.284,0
493,3.290,0
494,3.297,0
495,3.303,0
496,3.310,0
497,3.316,0
498,3.323,0
499,3.329,0
500,3.336,0
501,3.342,0
502,3.349,0
503,3.355,0
504,3.362,0
505,3.368,0
506,3.375,0
507,3.381,0
508,3.387,0
509,3.394,0
510,3.400,0
511,3.407,0
512,3.413,0
513,3.420,0
514,3.426,0
515,3.433,0
516,3.439,0
517,3.446,0
518,3.452,0
519,3.459,0
520,3.465,0
521,3.472,0
522,3.478,0
523,3.484,0
524,3.491,0
525,3.497,0
526,3.504,0
527,3.510,0
528,3.517,0
529,3.523,0
530,3.530,0
531,3.536,0
532,3.543,0
533,3.549,0
534,3.556,0
535,3.562,0
536,3.569,0
537,3.575,0
538,3.582,0
539,3.588,0
540,3.594,0
541,3.601,0
542,3.607,0
543,3.614,0
544,3.620,0
545,3.627,0
546,3.633,0
547,3.640,0
548,3.646,0
549,3.653,0
550,3.659,0
551,3.666,0
552,3.672,0
553,3.679,0
554,3.685,0
555,3.691,0
556,3.698,0
557,3.704,0
558,3.711,0
559,3.717,0
560,3.724,0
561,3.730,0
562,3.737,0
563,3.743,0
564,3.750,0
565,3.756,0
566,3.763,0
567,3.769,0
568,3.776,0
569,3.782,0
570,3.789,0
571,3.795,0
572,3.801,0
573,3.808,0
574,3.814,0
575,3.821,0
576,3.827,0
577,3.834,0
578,3.840,0
579,3.847,0
580,3.853,0
581,3.860,0
582,3.866,0
583,3.873,0
584,3.879,0
585,3.886,0
586,3.892,0
587,3.898,0
588,3.905,0
589,3.911,0
590,3.918,0
591,3.924,0
592,3.931,0
593,3.937,0
594,3.944,0
595,3.950,0
596,3.957,0
597,3.963,0
598,3.970,0
599,3.976,0
600,3.983,0
601,3.989,0
602,3.996,0
603,4.002,0
604,4.008,0
605,4.015,0
606,4.021,0
607,4.028,0
608,4.034,0
609,4.041,0
610,4.047,0
611,4.054,0
612,4.060,0
613,4.067,0
614,4.073,0
615,4.080,0
616,4.086,0
617,4.093,0
618,4.099,0
619,4.105,0
620,4.112,0
621,4.118,0
622,4.125,0
623,4.131,0
624,4.138,0
625,4.144,0
626,4.151,0
627,4.157,0
628,4.164,0
629,4.170,0
630,4.177,0
631,4.183,0
632,4.190,0
633,4.196,0
634,4.203,0
635,4.209,0
636,4.215,0
637,4.222,0
638,4.228,0
639,4.235,0
640,4.241,0
641,4.248,0
642,4.254,0
643,4.261,0
644,4.267,0
645,4.274,0
646,4.280,0
647,4.287,0
648,4.293,0
649,4.300,0
650,4.306,0
651,4.312,0
652,4.319,0
653,4.325,0
654,4.332,0
655,4.338,0
656,4.345,0
657,4.351,0
658,4.358,0
659,4.364,0
660,4.371,0
661,4.377,0
662,4.384,0
663,4.390,0
664,4.397,0
665,4.403,0
666,4.410,0
667,4.416,0
668,4.422,0
669,4.429,0
670,4.435,0
671,4.442,0
672,4.448,0
673,4.455,0
674,4.461,0
675,4.468,0
676,4.474,0
677,4.481,0
678,4.487,0
679,4.494,0
680,4.500,0
681,4.507,0
682,4.513,0
683,4.519,0
684,4.526,0
685,4.532,0
686,4.539,0
687,4.545,0
688,4.552,0
689,4.558,0
690,4.565,0
691,4.571,0
692,4.578,0
693,4.584,0
694,4.591,0
695,4.597,0
696,4.604,0
697,4.610,0
698,4.616,0
699,4.623,0
700,4.629,0
701,4.636,0
702,4.642,0
703,4.649,0
704,4.655,0
705,4.662,0
706,4.668,0
707,4.675,0
708,4.681,0
709,4.688,0
710,4.694,0
711,4.701,0
712,4.707,0
713,4.714,0
714,4.720,0
715,4.726,0
716,4.733,0
717,4.739,0
718,4.746,0
719,4.752,0
720,4.759,0
721,4.765,0
722,4.772,0
723,4.778,0
724,4.785,0
725,4.791,0
726,4.798,0
727,4.804,0
728,4.811,0
729,4.817,0
730,4.823,0
731,4.830,0
732,4.836,0
733,4.843,0
734,4.849,0
735,4.856,0
736,4.862,0
737,4.869,0
738,4.875,0
739,4.882,0
740,4.888,0
741,4.895,0
742,4.901,0
743,4.908,0
744,4.914,0
745,4.921,0
746,4.927,0
747,4.933,0
748,4.940,0
749,4.946,0
750,4.953,0
751,4.959,0
752,4.966,0
753,4.972,0
754,4.979,0
755,4.985,0
756,4.992,0
757,4.998,0
758,5.005,0
759,5.011,0
760,5.018,0
761,5.024,0
762,5.030,0
763,5.037,0
764,5.043,0
765,5.050,0
766,5.056,0
767,5.063,0
768,5.069,0
769,5.076,0
770,5.082,0
771,5.089,0
772,5.095,0
773,5.102,0
774,5.108,0
775,5.115,0
776,5.121,0
777,5.128,0
778,5.134,0
779,5.140,0
780,5.147,0
781,5.153,0
782,5.160,0
783,5.166,0
784,5.173,0
785,5.179,0
786,5.186,0
787,5.192,0
788,5.199,0
789,5.205,0
790,5.212,0
791,5.218,0
792,5.225,0
793,5.231,0
794,5.237,0
795,5.244,0
796,5.250,0
797,5.257,0
798,5.263,0
799,5.270,0
800,5.276,0
801,5.283,0
802,5.289,0
803,5.296,0
804,5.302,0
805,5.309,0
806,5.315,0
807,5.322,0
808,5.328,0
809,5.335,0
810,5.341,0
811,5.347,0
812,5.354,0
813,5.360,0
814,5.367,0
815,5.373,0
816,5.380,0
817,5.386,0
818,5.393,0
819,5.399,0
820,5.406,0
821,5.412,0
822,5.419,0
823,5.425,0
824,5.432,0
825,5.438,0
826,5.444,0
827,5.451,0
828,5.457,0
829,5.464,0
830,5.470,0
831,5.477,0
832,5.483,0
833,5.490,0
834,5.496,0
835,5.503,0
836,5.509,0
837,5.516,0
838,5.522,0
839,5.529,0
840,5.535,0
841,5.542,0
842,5.548,0
843,5.554,0
844,5.561,0
845,5.567,0
846,5.574,0
847,5.580,0
848,5.587,0
849,5.593,0
850,5.600,0
851,5.606,0
852,5.613,0
853,5.619,0
854,5.626,0
855,5.632,0
856,5.639,0
857,5.645,0
858,5.651,0
859,5.658,0
860,5.664,0
861,5.671,0
862,5.677,0
863,5.684,0
864,5.690,0
865,5.697,0
866,5.703,0
867,5.710,0
868,5.716,0
869,5.723,0
870,5.729,0
871,5.736,0
872,5.742,0
873,5.749,0
874,5.755,0
875,5.761,0
876,5.768,0
877,5.774,0
878,5.781,0
879,5.787,0
880,5.794,0
881,5.800,0
882,5.807,0
883,5.813,0.0698731239210155
884,5.820,0.534623329775541
885,5.826,0.816206565073892
886,5.833,0.710821168284086
887,5.839,0.505504478046098
888,5.846,0.5816801213841
889,5.852,0.620586058554344
890,5.858,0.62432817945818
891,5.865,0.627843046056115
892,5.871,0.625297797830024
893,5.878,0.620131549942543
894,5.884,0.624949341227643
895,5.891,0.632372981887074
896,5.897,0.626918878545451
897,5.904,0.617419648558791
898,5.910,0.614253238563238
899,5.917,0.613783579664376
900,5.923,0.604041945084755
901,5.930,0.593906403041572
902,5.936,0.584346571906671
903,5.943,0.577089584404901
904,5.949,0.574423133882329
905,5.956,0.575862411153035
906,5.962,0.569529591161929
907,5.968,0.564242140977966
908,5.975,0.562530158540179
909,5.981,0.555364072760769
910,5.988,0.547031414877733
911,5.994,0.539971381107744
912,6.001,0.539532022783002
913,6.007,0.536411063648628
914,6.014,0.532426538151832
915,6.020,0.525836163280704
916,6.027,0.519685146734318
917,6.033,0.522972759026352
918,6.040,0.53438092518258
919,6.046,0.533411306810736
920,6.053,0.534986936664982
921,6.059,0.540213785700705
922,6.065,0.545986045070589
923,6.072,0.545895143348229
924,6.078,0.544016507752781
925,6.085,0.543077189955057
926,6.091,0.537592786039313
927,6.098,0.533350705662496
928,6.104,0.53212353241063
929,6.111,0.527684498302032
930,6.117,0.519488193002537
931,6.124,0.518518574630693
932,6.130,0.523457568212274
933,6.137,0.520533562809681
934,6.143,0.513897737077373
935,6.150,0.514397696550355
936,6.156,0.520806267976763
937,6.163,0.537895791780515
938,6.169,0.578937919426228
939,6.175,0.632600236192975
940,6.182,0.69279232668261
941,6.188,0.745318371919852
942,6.195,0.780603390482741
943,6.201,0.781785112873426
944,6.208,0.76843770997351
945,6.214,0.754802451619452
946,6.221,0.748742336795426
947,6.227,0.745818331392834
948,6.234,0.738849199345205
949,6.240,0.734743471551927
950,6.247,0.725471495871168
951,6.253,0.712230144980672
952,6.260,0.703988388819997
953,6.266,0.704276244274138
954,6.272,0.701912799492768
955,6.279,0.696822303040587
956,6.285,0.690640985920081
957,6.292,0.677945045363747
958,6.298,0.672612144318604
959,6.305,0.674384727904632
960,6.311,0.672884849485686
961,6.318,0.665521809974495
962,6.324,0.656583140609057
963,6.331,0.643856899478603
964,6.337,0.63134276236699
965,6.344,0.628252103806737
966,6.350,0.642993333116179
967,6.357,0.654568152430068
968,6.363,0.674672583358773
969,6.370,0.701155285139765
970,6.376,0.729243917349124
971,6.382,0.740864187524193
972,6.389,0.745333522206912
973,6.395,0.744121499242107
974,6.402,0.729925680266827
975,6.408,0.709881850486362
976,6.415,0.699352400979618
977,6.421,0.691625754578985
978,6.428,0.682777986935908
979,6.434,0.66930938173951
980,6.441,0.654295447262987
981,6.447,0.639372414508824
982,6.454,0.6290247684468
983,6.460,0.616343978177527
984,6.467,0.609874805602879
985,6.473,0.607026551635587
986,6.479,0.610662620530003
987,6.486,0.609071840388696
988,6.492,0.601708800877505
989,6.499,0.58870985457997
990,6.505,0.579437878899211
991,6.512,0.579589381769811
992,6.518,0.583179999803046
993,6.525,0.586134305779759
994,6.531,0.582043728273541
995,6.538,0.575786659717735
996,6.544,0.571968787378599
997,6.551,0.569029631688946
998,6.557,0.560015210888208
999,6.564,0.553530888026501
