#"+EI TIC Scan LOHC008_GS1_01.d "
#Point,X(Minutes),Y(Counts)
0,0.095,0.735771762503829
1,0.099,0.737524469431878
2,0.102,0.737253217169204
3,0.106,0.735844791959165
4,0.110,0.735338802161484
5,0.113,0.736256886742843
6,0.117,0.738953760200585
7,0.120,0.740038769251282
8,0.124,0.737753990577218
9,0.128,0.737060210751532
10,0.131,0.742563501850019
11,0.135,0.746647934959132
12,0.138,0.744024090956726
13,0.142,0.741029883287976
14,0.146,0.741259404433316
15,0.149,0.741640200878993
16,0.153,0.738186950919563
17,0.156,0.731045713465698
18,0.160,0.726126658009894
19,0.163,0.726773490328579
20,0.167,0.725412012625541
21,0.171,0.720785074991079
22,0.174,0.721134573098755
23,0.178,0.726298798868899
24,0.181,0.730284120574343
25,0.185,0.728187131928285
26,0.189,0.723779282659829
27,0.192,0.726679595314576
28,0.196,0.735025818781475
29,0.199,0.740539542659296
30,0.203,0.743982359839392
31,0.207,0.741968833428002
32,0.210,0.732673227041743
33,0.214,0.722047441290447
34,0.217,0.715020964409251
35,0.221,0.712444067913846
36,0.224,0.711186918004145
37,0.228,0.713038736335863
38,0.232,0.718145581819672
39,0.235,0.719903505137387
40,0.239,0.721697943182771
41,0.242,0.724754747527523
42,0.246,0.726236202192897
43,0.250,0.724958186724528
44,0.253,0.723914908791166
45,0.257,0.726053628554559
46,0.260,0.728176699148951
47,0.264,0.727571597947601
48,0.268,0.726851736173581
49,0.271,0.730857923437693
50,0.275,0.735317936602817
51,0.278,0.737524469431878
52,0.282,0.73927195997026
53,0.285,0.738009593670892
54,0.289,0.732490653403405
55,0.293,0.729293006537649
56,0.296,0.72955382602099
57,0.300,0.727686358520271
58,0.303,0.724556524720184
59,0.307,0.724389600250846
60,0.311,0.726799572276913
61,0.314,0.726298798868899
62,0.318,0.724671285292854
63,0.321,0.729277357368649
64,0.325,0.733377439646763
65,0.328,0.730524074499017
66,0.332,0.725328550390872
67,0.336,0.721139789488422
68,0.339,0.719569656198711
69,0.343,0.719470544795042
70,0.346,0.717582211735656
71,0.350,0.713889007851553
72,0.354,0.712491015420848
73,0.357,0.711228649121479
74,0.361,0.71209456980617
75,0.364,0.715114859423254
76,0.368,0.71747788394232
77,0.372,0.716262465149953
78,0.375,0.71387857507222
79,0.379,0.714186342062561
80,0.382,0.715495655868931
81,0.386,0.715605200051934
82,0.389,0.717331825031649
83,0.393,0.721134573098755
84,0.397,0.723022906158141
85,0.400,0.720153891841394
86,0.404,0.715083561085253
87,0.407,0.713622971978546
88,0.411,0.713247391922535
89,0.415,0.709538538869432
90,0.418,0.705323696018648
91,0.422,0.706064423351335
92,0.425,0.709533322479765
93,0.429,0.711265163849147
94,0.433,0.711828533933162
95,0.436,0.70993498448411
96,0.440,0.70433779837162
97,0.443,0.698761477817799
98,0.447,0.697321754269758
99,0.450,0.699924732713498
100,0.454,0.706022692234001
101,0.458,0.709371614400094
102,0.461,0.707603258303045
103,0.465,0.704624699803295
104,0.468,0.702929373161581
105,0.472,0.704494290061625
106,0.476,0.708589155950072
107,0.479,0.711343409694149
108,0.483,0.7072015962987
109,0.486,0.70217821304956
110,0.490,0.702219944166895
111,0.494,0.704864653727968
112,0.497,0.706142669196337
113,0.501,0.706758203177021
114,0.504,0.708729998471076
115,0.508,0.710456623450791
116,0.511,0.709757627235438
117,0.515,0.708130113659393
118,0.519,0.709449860245096
119,0.522,0.712037189519835
120,0.526,0.71412374538656
121,0.529,0.715965130938944
122,0.533,0.71495836773325
123,0.537,0.70862567067774
124,0.540,0.701474000444541
125,0.544,0.699309198732814
126,0.547,0.700769787839521
127,0.551,0.703534474362931
128,0.555,0.703967434705277
129,0.558,0.701009741764194
130,0.562,0.698599769738127
131,0.565,0.699856919647829
132,0.569,0.701051472881529
133,0.572,0.700039493286167
134,0.576,0.699992545779166
135,0.580,0.701114069557531
136,0.583,0.702929373161581
137,0.587,0.704802057051967
138,0.590,0.705840118595662
139,0.594,0.703294520438258
140,0.598,0.697201777307422
141,0.601,0.694124107404003
142,0.605,0.696361938571065
143,0.608,0.699314415122481
144,0.612,0.700206417755505
145,0.616,0.701870446059218
146,0.619,0.704280418085286
147,0.623,0.707457199392374
148,0.626,0.709063847409752
149,0.630,0.70455167034796
150,0.633,0.696586243326738
151,0.637,0.69295041972897
152,0.641,0.693972832103665
153,0.644,0.693910235427663
154,0.648,0.691009922772916
155,0.651,0.689210268337866
156,0.655,0.691489830622263
157,0.659,0.698860589221468
158,0.662,0.704327365592287
159,0.666,0.704400395047622
160,0.669,0.704045680550279
161,0.673,0.702699852016242
162,0.676,0.697937288250442
163,0.680,0.694697910267352
164,0.684,0.696132417425725
165,0.687,0.699377011798482
166,0.691,0.700696758384186
167,0.694,0.699846486868495
168,0.698,0.700295096379841
169,0.702,0.700300312769508
170,0.705,0.698083347161113
171,0.709,0.694849185567689
172,0.712,0.69138028643926
173,0.716,0.689267648624201
174,0.720,0.690728237730908
175,0.723,0.69416062213167
176,0.727,0.698516307503458
177,0.730,0.701374889040871
178,0.734,0.70191739356622
179,0.737,0.698474576386124
180,0.741,0.695548181783042
181,0.745,0.69677924974441
182,0.748,0.699575234605821
183,0.752,0.701009741764194
184,0.755,0.702089534425224
185,0.759,0.701713954369214
186,0.763,0.69846414360679
187,0.766,0.697723416274103
188,0.770,0.702313839180897
189,0.773,0.706043557792668
190,0.777,0.707598041913378
191,0.781,0.707587609134044
192,0.784,0.703247572931257
193,0.788,0.698521523893125
194,0.791,0.697045285617417
195,0.795,0.698271137189118
196,0.798,0.698385897761788
197,0.802,0.697003554500083
198,0.806,0.695532532614042
199,0.809,0.696231528829395
200,0.813,0.697426082063095
201,0.816,0.696925308655081
202,0.820,0.697227859255756
203,0.824,0.696241961608728
204,0.827,0.693764176516993
205,0.831,0.690013592346555
206,0.834,0.687228040264477
207,0.838,0.690170084036559
208,0.842,0.694958729750693
209,0.845,0.694473605511679
210,0.849,0.690670857444573
211,0.852,0.68830261653584
212,0.856,0.689669310628545
213,0.859,0.692741764142297
214,0.863,0.696121984646392
215,0.867,0.698140727447448
216,0.870,0.697885124353774
217,0.874,0.694817887229689
218,0.877,0.692016685978611
219,0.881,0.693847638751662
220,0.885,0.697113098683086
221,0.888,0.696544512209403
222,0.892,0.692329669358619
223,0.895,0.687817492296827
224,0.899,0.686247359007117
225,0.903,0.687577538372154
226,0.906,0.690425687130233
227,0.910,0.693378163681649
228,0.913,0.694583149694682
229,0.917,0.694551851356681
230,0.920,0.694228435197339
231,0.924,0.69439014327701
232,0.928,0.69582986682505
233,0.931,0.698177242175116
234,0.935,0.699747375464826
235,0.938,0.697775580170771
236,0.942,0.693362514512648
237,0.946,0.688813822723188
238,0.949,0.688031364273166
239,0.953,0.690237897102228
240,0.956,0.691119466955919
241,0.960,0.690190949595226
242,0.964,0.687676649775823
243,0.967,0.684051258957389
244,0.971,0.683941714774386
245,0.974,0.689038127478861
246,0.978,0.693628550385656
247,0.981,0.696299341895063
248,0.985,0.697780796560438
249,0.989,0.697796445729438
250,0.992,0.696507997481736
251,0.996,0.695496017886374
252,0.999,0.696690571120074
253,1.003,0.699126625094475
254,1.007,0.700383775004177
255,1.010,0.700754138670521
256,1.014,0.701698305200214
257,1.017,0.702261675284229
258,1.021,0.698610202517461
259,1.024,0.693586819268321
260,1.028,0.690983840824582
261,1.032,0.694071943507334
262,1.035,0.69821897329245
263,1.039,0.699601316554155
264,1.042,0.698052048823112
265,1.046,0.696528863040403
266,1.050,0.697081800345085
267,1.053,0.697394783725094
268,1.057,0.694624880812017
269,1.060,0.692037551537278
270,1.064,0.691015139162583
271,1.068,0.688871203009523
272,1.071,0.686529044049124
273,1.075,0.688359996822175
274,1.078,0.691401151997927
275,1.082,0.688939016075191
276,1.085,0.684906746862746
277,1.089,0.687128928860808
278,1.093,0.69427538270434
279,1.096,0.698041616043778
280,1.100,0.699460474033151
281,1.103,0.700420289731845
282,1.107,0.698688448362463
283,1.111,0.693790258465327
284,1.114,0.689262432234534
285,1.118,0.688260885418506
286,1.121,0.689335461689869
287,1.125,0.691406368387594
288,1.129,0.690368306843898
289,1.132,0.685861346171772
290,1.136,0.685068454942417
291,1.139,0.68781227590716
292,1.143,0.688688629371185
293,1.146,0.688245236249506
294,1.150,0.689210268337866
295,1.154,0.690665641054906
296,1.157,0.690144002088225
297,1.161,0.688015715104166
298,1.164,0.686017837861777
299,1.168,0.6880574462215
300,1.172,0.695156952558031
301,1.175,0.704144791953948
302,1.179,0.705088958483641
303,1.182,0.695558614562376
304,1.186,0.685120618839085
305,1.190,0.684046042567722
306,1.193,0.689043343868528
307,1.197,0.692501810217624
308,1.200,0.692063633485612
309,1.204,0.69105165389025
310,1.207,0.692089715433946
311,1.211,0.691296824204591
312,1.215,0.689961428449887
313,1.218,0.691145548904253
314,1.222,0.692449646320956
315,1.225,0.690535231313236
316,1.229,0.689617146731877
317,1.233,0.691093385007585
318,1.236,0.689220701117199
319,1.240,0.68900682914086
320,1.243,0.694176271300671
321,1.247,0.700587214201183
322,1.251,0.702532927546904
323,1.254,0.699048379249473
324,1.258,0.692553974114292
325,1.261,0.689757989252881
326,1.265,0.692480944658957
327,1.268,0.696805331692744
328,1.272,0.698344166644454
329,1.276,0.694677044708685
330,1.279,0.689398058365871
331,1.283,0.689064209427195
332,1.286,0.690154434867559
333,1.290,0.687854007024495
334,1.294,0.687494076137485
335,1.297,0.688240019859839
336,1.301,0.685579661129765
337,1.304,0.683430508587038
338,1.308,0.684885881304079
339,1.312,0.685939592016775
340,1.315,0.680780582636298
341,1.319,0.67105723229736
342,1.322,0.66578867873388
343,1.326,0.670733816138018
344,1.329,0.677410794911537
345,1.333,0.67678482815152
346,1.337,0.671912720202717
347,1.340,0.672590850859403
348,1.344,0.678041978061221
349,1.347,0.679732088313268
350,1.351,0.678188036971892
351,1.355,0.681083133236973
352,1.358,0.685616175857432
353,1.362,0.68504758938375
354,1.365,0.684285996492395
355,1.369,0.688589517967515
356,1.372,0.692152312109948
357,1.376,0.691729784546936
358,1.380,0.690785618017243
359,1.383,0.690076189022557
360,1.387,0.687160227198809
361,1.390,0.685193648294421
362,1.394,0.686116949265446
363,1.398,0.686153463993114
364,1.401,0.683399210249037
365,1.405,0.682794109047687
366,1.408,0.684338160389063
367,1.412,0.684619845431071
368,1.416,0.686341254021119
369,1.419,0.69069172300324
370,1.423,0.692204476006616
371,1.426,0.688636465474516
372,1.430,0.685115402449418
373,1.433,0.684270347323395
374,1.437,0.684254698154394
375,1.441,0.683670462511711
376,1.444,0.683879118098384
377,1.448,0.686341254021119
378,1.451,0.690743886899909
379,1.455,0.691828895950605
380,1.459,0.687269771381812
381,1.462,0.682554155123014
382,1.466,0.680978805443636
383,1.469,0.679293911581256
384,1.473,0.679200016567254
385,1.477,0.684265130933728
386,1.480,0.691588942025932
387,1.484,0.694640529981017
388,1.487,0.691594158415599
389,1.491,0.68553793001243
390,1.494,0.680467599256289
391,1.498,0.681166595471642
392,1.502,0.686768997973798
393,1.505,0.69067607383424
394,1.509,0.691390719218593
395,1.512,0.68984145148755
396,1.516,0.686403850697121
397,1.520,0.684437271792733
398,1.523,0.683680895291045
399,1.527,0.684416406234066
400,1.530,0.690550880482236
401,1.534,0.696487131923068
402,1.538,0.693680714282324
403,1.541,0.684296429271729
404,1.545,0.675465081565816
405,1.548,0.671928369371718
406,1.552,0.674427020022121
407,1.555,0.682241171743005
408,1.559,0.690670857444573
409,1.563,0.692673951076629
410,1.566,0.688944232464858
411,1.570,0.687118496081474
412,1.573,0.687285420550812
413,1.577,0.684666792938073
414,1.581,0.682402879822676
415,1.584,0.685485766115762
416,1.588,0.687384531954482
417,1.591,0.684171235919725
418,1.595,0.678130656685557
419,1.599,0.676174510560503
420,1.602,0.678933980694246
421,1.606,0.682924518789357
422,1.609,0.686101300096446
423,1.613,0.689643228680211
424,1.616,0.692616570790294
425,1.620,0.693623333995989
426,1.624,0.690227464322894
427,1.627,0.68506323855275
428,1.631,0.683420075807704
429,1.634,0.685543146402097
430,1.638,0.689022478309861
431,1.642,0.690190949595226
432,1.645,0.688453891836178
433,1.649,0.686440365424789
434,1.652,0.687426263071816
435,1.656,0.690144002088225
436,1.660,0.692611354400627
437,1.663,0.69749911151843
438,1.667,0.700060358844835
439,1.670,0.694442307173678
440,1.674,0.686643804621794
441,1.677,0.685475333336428
442,1.681,0.68982580231855
443,1.685,0.69200103680961
444,1.688,0.691009922772916
445,1.692,0.689439789483206
446,1.695,0.691333338932258
447,1.699,0.693148642536309
448,1.703,0.691808030391938
449,1.706,0.691077735838584
450,1.710,0.693472058695651
451,1.713,0.694536202187681
452,1.717,0.689669310628545
453,1.720,0.684145153971391
454,1.724,0.685344923594758
455,1.728,0.689345894469203
456,1.731,0.688756442436853
457,1.735,0.68791138731083
458,1.738,0.689017261920194
459,1.742,0.689340678079536
460,1.746,0.68817220679417
461,1.749,0.686252575396783
462,1.753,0.685454467777761
463,1.756,0.683863468929383
464,1.760,0.683206203831365
465,1.764,0.685824831444105
466,1.767,0.687687082555157
467,1.771,0.685444034998428
468,1.774,0.681933404752663
469,1.778,0.680519763152957
470,1.781,0.681171811861308
471,1.785,0.685068454942417
472,1.789,0.689591064783543
473,1.792,0.691129899735253
474,1.796,0.687128928860808
475,1.799,0.682277686470673
476,1.803,0.680978805443636
477,1.807,0.684536383196402
478,1.810,0.690196165984893
479,1.814,0.692700033024963
480,1.817,0.689043343868528
481,1.821,0.684447704572066
482,1.825,0.686278657345117
483,1.828,0.691557643687931
484,1.832,0.692945203339303
485,1.835,0.689267648624201
486,1.839,0.680227645331616
487,1.842,0.673728023806768
488,1.846,0.675199045692809
489,1.850,0.674573078932791
490,1.853,0.671818825188715
491,1.857,0.676664851189183
492,1.860,0.683289666066034
493,1.864,0.683341829962702
494,1.868,0.682209873405004
495,1.871,0.680118101148612
496,1.875,0.678219335309893
497,1.878,0.682152493118669
498,1.882,0.688944232464858
499,1.886,0.688584301577848
500,1.889,0.683232285779699
501,1.893,0.681855158907661
502,1.896,0.685042372994083
503,1.900,0.685073671332084
504,1.903,0.685058022163083
505,1.907,0.687243689433478
506,1.911,0.684390324285731
507,1.914,0.673848000769104
508,1.918,0.664729751631517
509,1.921,0.667217969502586
510,1.925,0.682016866987332
511,1.929,0.694546634967014
512,1.932,0.695746404590381
513,1.936,0.692637436348961
514,1.939,0.693618117606322
515,1.943,0.69317994087431
516,1.947,0.687666216996489
517,1.950,0.683185338272698
518,1.954,0.686090867317112
519,1.957,0.690916027758913
520,1.961,0.688813822723188
521,1.964,0.681229192147643
522,1.968,0.67645619560251
523,1.972,0.676696149527184
524,1.975,0.681317870771979
525,1.979,0.688886852178523
526,1.982,0.696847062810078
527,1.986,0.693779825685993
528,1.990,0.676852641217188
529,1.993,0.664625423838181
530,1.997,0.67022260995067
531,2.000,0.683409643028371
532,2.004,0.692992150846304
533,2.008,0.696993121720749
534,2.011,0.696168932153393
535,2.015,0.691797597612605
536,2.018,0.688339131263508
537,2.022,0.685376221932759
538,2.025,0.682522856785013
539,2.029,0.68051454676329
540,2.033,0.684724173224407
541,2.036,0.691354204490925
542,2.040,0.690618693547905
543,2.043,0.68396779672272
544,2.047,0.675287724317145
545,2.051,0.66554350841954
546,2.054,0.661156524709751
547,2.058,0.668762020843963
548,2.061,0.679001793759915
549,2.065,0.683811305032715
550,2.068,0.68660207350446
551,2.072,0.690754319679242
552,2.076,0.690608260768571
553,2.079,0.685371005543092
554,2.083,0.680170265045281
555,2.086,0.680697120401629
556,2.090,0.684385107896065
557,2.094,0.687254122212811
558,2.097,0.688464324615512
559,2.101,0.690540447702903
560,2.104,0.692366184086287
561,2.108,0.696847062810078
562,2.112,0.706293944496675
563,2.115,0.709298584944759
564,2.119,0.696257610777729
565,2.122,0.681067484067972
566,2.126,0.679236531294921
567,2.129,0.681922971973329
568,2.133,0.681083133236973
569,2.137,0.679413888543593
570,2.140,0.679137419891252
571,2.144,0.681844726128327
572,2.147,0.685459684167428
573,2.151,0.685428385829427
574,2.155,0.685824831444105
575,2.158,0.694291031873341
576,2.162,0.702814612588911
577,2.165,0.699763024633826
578,2.169,0.693237321160645
579,2.173,0.691808030391938
580,2.176,0.691093385007585
581,2.180,0.690696939392907
582,2.183,0.690968191655581
583,2.187,0.689898831773885
584,2.190,0.686403850697121
585,2.194,0.68386868531905
586,2.198,0.68494847798008
587,2.201,0.687196741926476
588,2.205,0.685955241185775
589,2.208,0.681390900227315
590,2.212,0.677775942188214
591,2.216,0.67513123262714
592,2.219,0.673415040426759
593,2.223,0.678271499206561
594,2.226,0.688965098023526
595,2.230,0.69308082947064
596,2.234,0.689345894469203
597,2.237,0.684505084858401
598,2.241,0.681505660799984
599,2.244,0.68134916910998
600,2.248,0.684129504802391
601,2.251,0.684056475347055
602,2.255,0.680076370031278
603,2.259,0.677280385169867
604,2.262,0.677400362132203
605,2.266,0.678031545281888
606,2.269,0.678709675938573
607,2.273,0.679716439144268
608,2.277,0.680102451979612
609,2.280,0.681114431574974
610,2.284,0.685131051618419
611,2.287,0.690065756243223
612,2.291,0.693524222592319
613,2.295,0.691688053429601
614,2.298,0.680076370031278
615,2.302,0.669883544622327
616,2.305,0.675569409359152
617,2.309,0.686894191325801
618,2.312,0.68722282387481
619,2.316,0.678887033187245
620,2.320,0.669695754594322
621,2.323,0.667071910591916
622,2.327,0.672246569141393
623,2.330,0.67833931227223
624,2.334,0.683534836380374
625,2.338,0.690326575726564
626,2.341,0.694510120239347
627,2.345,0.689413707534871
628,2.348,0.683555701939042
629,2.352,0.686560342387125
630,2.356,0.694337979380342
631,2.359,0.704343014761287
632,2.363,0.728395787514957
633,2.366,0.831216044237488
634,2.370,1.25875655771906
635,2.373,2.53939065370074
636,2.377,5.46274931799617
637,2.381,10.7882658566379
638,2.384,18.4381221685763
639,2.388,27.1422160485671
640,2.391,35.3237163625677
641,2.395,41.9924115092961
642,2.399,46.9108566475088
643,2.402,50.375431388905
644,2.406,52.7382368196048
645,2.409,54.1143934431651
646,2.413,54.5002602195985
647,2.416,53.8912571587776
648,2.420,52.2805351410697
649,2.424,49.7546758021647
650,2.427,46.464719704865
651,2.431,42.4107555277951
652,2.434,37.2708329171089
653,2.438,31.5361479893922
654,2.442,25.8276441214131
655,2.445,20.5377346586371
656,2.449,15.9555327819575
657,2.452,12.385832139606
658,2.456,10.302818201465
659,2.460,9.89372805823494
660,2.463,11.7563860476808
661,2.467,16.0625261504134
662,2.470,22.2022480865891
663,2.474,28.6668206892656
664,2.477,33.6812421809579
665,2.481,35.9256616481694
666,2.485,34.9685636884924
667,2.488,31.2232324224491
668,2.492,25.6600832525358
669,2.495,19.5321399242278
670,2.499,13.9621207691233
671,2.503,9.61678471443422
672,2.506,6.63972331851896
673,2.510,4.7696737049152
674,2.513,3.64026274537441
675,2.517,2.96419777899691
676,2.521,2.55712116217823
677,2.524,2.4136704463409
678,2.528,2.92072960390336
679,2.531,5.31879261236116
680,2.535,12.0432822629658
681,2.538,25.4364253291816
682,2.542,45.1018648749551
683,2.546,66.8749240689279
684,2.549,85.0864671359366
685,2.553,96.1559902906296
686,2.556,100
687,2.560,98.3050593711214
688,2.564,92.2666918861719
689,2.567,82.1666556166145
690,2.571,68.6610263236237
691,2.574,53.6966545258675
692,2.578,39.5584023596443
693,2.582,27.6951272713008
694,2.585,18.7772448772054
695,2.589,12.7824238131944
