#"+EI TIC Scan MBPR043_01_LQ1.d "
#Point,X(Minutes),Y(Counts)
0,0.101,0.132608388919694
1,0.108,0.121352384876391
2,0.114,0.11080392348669
3,0.121,0.101339315524805
4,0.127,0.0941972506225248
5,0.134,0.0883781532858428
6,0.140,0.0795858088424761
7,0.147,0.0721203518686055
8,0.153,0.0664345312644577
9,0.160,0.062246113949372
10,0.166,0.057985178412172
11,0.172,0.0537183630191249
12,0.179,0.0502472881173856
13,0.185,0.0467762132156463
14,0.192,0.0429641066747751
15,0.198,0.0406180441917814
16,0.205,0.0394087538392274
17,0.211,0.0386012536362254
18,0.218,0.037599718190269
19,0.224,0.0363316292792439
20,0.231,0.035239936043632
21,0.237,0.0336582548207615
22,0.244,0.0315297470041105
23,0.250,0.0301813000631751
24,0.257,0.0289876893262134
25,0.263,0.0282213481141411
26,0.269,0.0269081803082883
27,0.276,0.0258223669285234
28,0.282,0.0248463108579045
29,0.289,0.023611541130013
30,0.295,0.022631565155496
31,0.302,0.0229608370829337
32,0.308,0.0228295203023485
33,0.315,0.0222082155345047
34,0.321,0.0212733184548154
35,0.328,0.0198895923787974
36,0.334,0.0198856724748993
37,0.341,0.0199013520904916
38,0.347,0.0195172015084809
39,0.354,0.0191898895329923
40,0.360,0.0183177109156721
41,0.367,0.0180746768739919
42,0.373,0.0179903989401834
43,0.379,0.0175200104724153
44,0.386,0.0170241426293096
45,0.392,0.0171770188813343
46,0.399,0.0169516244071954
47,0.405,0.0168399071461004
48,0.412,0.016181363291225
49,0.418,0.0154679407817766
50,0.425,0.0151112295270524
51,0.431,0.014395847065655
52,0.438,0.0140391358109308
53,0.444,0.0138862595589062
54,0.451,0.0140410957628798
55,0.457,0.0143076492279485
56,0.464,0.0145644029332719
57,0.470,0.0148368362541877
58,0.476,0.0142057317265987
59,0.483,0.0134001914755457
60,0.489,0.012610330840085
61,0.496,0.0121850212671446
62,0.502,0.0116166352019247
63,0.509,0.0110051301938261
64,0.515,0.0109228122119667
65,0.522,0.0117420721266629
66,0.528,0.0123437773750164
67,0.535,0.0127004886297406
68,0.541,0.0126828490621993
69,0.548,0.0123006584321376
70,0.554,0.0119968658800373
71,0.561,0.0121987409307878
72,0.567,0.0121713016035014
73,0.574,0.0122967385282395
74,0.580,0.0123908162217932
75,0.586,0.0135648274392646
76,0.593,0.014339008459133
77,0.599,0.0130356404130254
78,0.606,0.0113285222654167
79,0.612,0.0104935827351282
80,0.619,0.0105778606689367
81,0.625,0.0103524661947978
82,0.632,0.0103603060025939
83,0.638,0.0104073448493707
84,0.645,0.0104151846571669
85,0.651,0.0103015074441229
86,0.658,0.00973900123475013
87,0.664,0.0092019744007148
88,0.671,0.00930781180596264
89,0.677,0.00973312137890303
90,0.683,0.0101290316726079
91,0.690,0.00971744176331075
92,0.696,0.00884330319404157
93,0.703,0.00889034204081839
94,0.709,0.00925881300723679
95,0.716,0.00921177416045997
96,0.722,0.00873942574074277
97,0.729,0.00891778136810487
98,0.735,0.00914905569809088
99,0.742,0.00900205930191333
100,0.748,0.00884330319404157
101,0.755,0.00815340010798159
102,0.761,0.00784372770003421
103,0.768,0.00772809053504121
104,0.774,0.00863946819134203
105,0.781,0.00899225954216816
106,0.787,0.00894522069539134
107,0.793,0.00876098521218214
108,0.800,0.0083611550145792
109,0.806,0.00895894035903458
110,0.813,0.0096566832528907
111,0.819,0.00999379498812455
112,0.826,0.00990167724651995
113,0.832,0.00912749622665151
114,0.839,0.00885114300183771
115,0.845,0.00880802405895896
116,0.852,0.00901577896555657
117,0.858,0.00898049983047396
118,0.865,0.00888054228107322
119,0.871,0.00831803607170045
120,0.878,0.00797112457672143
121,0.884,0.00812792073264415
122,0.890,0.00797700443256853
123,0.897,0.00822199842619778
124,0.903,0.00854343054583937
125,0.910,0.00851795117050192
126,0.916,0.00789860635460717
127,0.923,0.00747917663751388
128,0.929,0.00756345457132235
129,0.936,0.00765753226487598
130,0.942,0.00724202245168077
131,0.949,0.00755953466742428
132,0.955,0.008349395302885
133,0.962,0.00787508693121876
134,0.968,0.00737137928031701
135,0.975,0.00768693154411149
136,0.981,0.00793584544163881
137,0.988,0.00806520227027506
138,0.994,0.0077104509674999
139,1.000,0.0068813912930585
140,1.007,0.00644236205647488
141,1.013,0.00673831480077902
142,1.020,0.00671283542544158
143,1.026,0.00645412176816908
144,1.033,0.00648744095130266
145,1.039,0.00628556590055216
146,1.046,0.00618168844725335
147,1.052,0.00665011696307249
148,1.059,0.00680103326314811
149,1.065,0.00733806009718343
150,1.072,0.00773789029478638
151,1.078,0.00701858792949089
152,1.085,0.00651880018248721
153,1.091,0.00644040210452584
154,1.097,0.00720282341270008
155,1.104,0.00764381260123274
156,1.110,0.00746741692581968
157,1.117,0.00673047499298288
158,1.123,0.00599549301209512
159,1.130,0.00604645176277
160,1.136,0.00721066322049622
161,1.143,0.00798876414426273
162,1.149,0.0078829267390149
163,1.156,0.00750661596480036
164,1.162,0.0076300929375895
165,1.169,0.00760265361030303
166,1.175,0.00775552986232768
167,1.182,0.00732826033743826
168,1.188,0.0068813912930585
169,1.195,0.0068755114372114
170,1.201,0.00673047499298288
171,1.207,0.0064090428733413
172,1.214,0.0063972831616471
173,1.220,0.00687943134110947
174,1.227,0.00704406730482833
175,1.233,0.00661875773188794
176,1.240,0.00591513498218472
177,1.246,0.00545454627416172
178,1.253,0.0051879928090931
179,1.259,0.0052918702623919
180,1.266,0.00561134243008445
181,1.272,0.00633064479537994
182,1.279,0.00665403686697055
183,1.285,0.00637572369020772
184,1.292,0.00563290190152382
185,1.298,0.00542906689882428
186,1.304,0.00561134243008445
187,1.311,0.00599157310819705
188,1.317,0.00574069925872069
189,1.324,0.00549962516898951
190,1.330,0.00539770766763974
191,1.337,0.00525267122341122
192,1.343,0.00569170045999484
193,1.350,0.00710090591135031
194,1.356,0.00755561476352621
195,1.363,0.00741449822319576
196,1.369,0.0068755114372114
197,1.376,0.00623460714987727
198,1.382,0.00624832681352051
199,1.389,0.00606801123420938
200,1.395,0.00577401844185427
201,1.402,0.00581321748083495
202,1.408,0.00590729517438859
203,1.414,0.00574461916261876
204,1.421,0.00494103886351481
205,1.427,0.00466272568675197
206,1.434,0.00469996477378362
207,1.440,0.00549178536119337
208,1.447,0.00594061435752216
209,1.453,0.00560154267033928
210,1.460,0.00558782300669604
211,1.466,0.00575441892236393
212,1.473,0.00554666401576632
213,1.479,0.00492535924792253
214,1.486,0.00525463117536025
215,1.492,0.0050155170375781
216,1.499,0.00459804727243385
217,1.505,0.00526051103120735
218,1.511,0.00618168844725335
219,1.518,0.00620716782259079
220,1.524,0.00560546257423734
221,1.531,0.0051997525207873
222,1.537,0.00481364198682759
223,1.544,0.00494691871936191
224,1.550,0.00526247098315639
225,1.557,0.00486264078555344
226,1.563,0.00479796237123532
227,1.570,0.00511547458697884
228,1.576,0.0053898678598436
229,1.583,0.00527619064679963
230,1.589,0.00497043814275032
231,1.596,0.00493907891156577
232,1.602,0.00468036525429328
233,1.609,0.00442557150091885
234,1.615,0.00418253745923863
235,1.621,0.00486264078555344
236,1.628,0.00587201603930597
237,1.634,0.00589945536659245
238,1.641,0.00520759232858344
239,1.647,0.00562310214177865
240,1.654,0.00565838127686126
241,1.660,0.00560350262228831
242,1.667,0.00543886665856945
243,1.673,0.00522915180002281
244,1.680,0.00466860554259908
245,1.686,0.00455688828150414
246,1.693,0.00507039569215105
247,1.699,0.00480776213098049
248,1.706,0.00484696116996117
249,1.712,0.0046352863594655
250,1.718,0.00431777414372198
251,1.725,0.00398262236043716
252,1.731,0.00392382380196614
253,1.738,0.00407278015009273
254,1.744,0.00441773169312272
255,1.751,0.00498807771029162
256,1.757,0.00488224030504379
257,1.764,0.00475876333225464
258,1.770,0.00463724631141453
259,1.777,0.00450592953082925
260,1.783,0.00462744655166936
261,1.790,0.0048254016985218
262,1.796,0.00443733121261306
263,1.803,0.00451768924252345
264,1.809,0.00434717342295749
265,1.816,0.00390618423442484
266,1.822,0.00412373890076761
267,1.828,0.0047332839569172
268,1.835,0.00516251343375565
269,1.841,0.00545062637026366
270,1.848,0.00555646377551149
271,1.854,0.00582301724058012
272,1.861,0.00585437647176467
273,1.867,0.00536830838840423
274,1.874,0.00447065039574664
275,1.880,0.00437853265414204
276,1.887,0.00401594154357074
277,1.893,0.00429817462423164
278,1.900,0.00455100842565703
279,1.906,0.00438245255804011
280,1.913,0.00442361154896982
281,1.919,0.0041805775072896
282,1.925,0.00421193673847415
283,1.932,0.00469408491793652
284,1.938,0.0044686904437976
285,1.945,0.00353379336410837
286,1.951,0.00268121426627856
287,1.958,0.00280273128711867
288,1.964,0.00345931519004507
289,1.971,0.0034377557186057
290,1.977,0.0036102314901207
291,1.984,0.00409041971763403
292,1.990,0.00405318063060239
293,1.997,0.00425113577745483
294,2.003,0.00439813217363238
295,2.010,0.0044569307321034
296,2.016,0.0042726952488942
297,2.023,0.00375330798240018
298,2.029,0.00368078976028592
299,2.035,0.00393166360976228
300,2.042,0.00388854466688353
301,2.048,0.00355143293164967
302,2.055,0.00368862956808206
303,2.061,0.00388070485908739
304,2.068,0.00410413938127727
305,2.074,0.00451376933862539
306,2.081,0.00483912136216504
307,2.087,0.00446673049184857
308,2.094,0.00440401202947948
309,2.100,0.00462940650361839
310,2.107,0.00506451583630395
311,2.113,0.00478424270759208
312,2.120,0.00446477053989954
313,2.126,0.00405122067865335
314,2.132,0.00265769484289015
315,2.139,0.00252245815840681
316,2.145,0.00365139048105041
317,2.152,0.00371802884731757
318,2.158,0.00392970365781324
319,2.165,0.0039101041383229
320,2.171,0.00391794394611904
321,2.178,0.00399438207213137
322,2.184,0.00391990389806807
323,2.191,0.0038179863967183
324,2.197,0.004088459765685
325,2.204,0.00430013457618068
326,2.210,0.00415705808390119
327,2.217,0.00415313818000312
328,2.223,0.00390814418637387
329,2.230,0.00355731278749678
330,2.236,0.00366119024079558
331,2.242,0.00372978855901177
332,2.249,0.00381602644476927
333,2.255,0.0038983444266287
334,2.262,0.00400810173577461
335,2.268,0.00453532881006476
336,2.275,0.00481756189072566
337,2.281,0.0049233992959735
338,2.288,0.00456864799319834
339,2.294,0.00525071127146218
340,2.301,0.00825531760933136
341,2.307,0.0163989179575678
342,2.314,0.0326331999514167
343,2.320,0.0588142380866134
344,2.327,0.0886055077119307
345,2.333,0.106068679577824
346,2.339,0.103140511365967
347,2.346,0.0829980851857443
348,2.352,0.0559781876163611
349,2.359,0.0315591462833461
350,2.365,0.0160049676158119
351,2.372,0.00851795117050192
352,2.378,0.00597197358870671
353,2.385,0.00486852064140055
354,2.391,0.00472348419717203
355,2.398,0.00471760434132493
356,2.404,0.00471760434132493
357,2.411,0.00423545616186255
358,2.417,0.00406102043839852
359,2.424,0.00377878735773762
360,2.430,0.00357495235503808
361,2.437,0.0029712871547356
362,2.443,0.00304968523269696
363,2.449,0.00357299240308905
364,2.456,0.0045608081854022
365,2.462,0.00435109332685556
366,2.469,0.00368470966418399
367,2.475,0.00311632359896412
368,2.482,0.00321824110031389
369,2.488,0.00342991591080956
370,2.495,0.00340639648742116
371,2.501,0.00422173649821932
372,2.508,0.00436677294244783
373,2.514,0.00443733121261306
374,2.521,0.00423741611381159
375,2.527,0.00387286505129126
376,2.534,0.00434325351905943
377,2.540,0.00448045015549181
378,2.546,0.00428641491253744
379,2.553,0.00346127514199411
380,2.559,0.00320648138861968
381,2.566,0.00297324710668463
382,2.572,0.00293208811575492
383,2.579,0.00322020105226292
384,2.585,0.00359259192257939
385,2.592,0.00370430918367433
386,2.598,0.00366315019274461
387,2.605,0.00379054706943183
388,2.611,0.00410021947737921
389,2.618,0.0042844549605884
390,2.624,0.00417861755534057
391,2.631,0.00362395115376393
392,2.637,0.00359847177842649
393,2.644,0.00385326553180092
394,2.650,0.00390618423442484
395,2.656,0.00367294995248978
396,2.663,0.00356123269139484
397,2.669,0.0037258686551137
398,2.676,0.00402378135136688
399,2.682,0.00431385423982391
400,2.689,0.00483912136216504
401,2.695,0.00413549861246182
402,2.702,0.00344755547835087
403,2.708,0.00331035884191849
404,2.715,0.0037023492317253
405,2.721,0.00430993433592585
406,2.728,0.00414725832415602
407,2.734,0.00362591110571297
408,2.741,0.00374350822265501
409,2.747,0.00415509813195216
410,2.753,0.00440989188532658
411,2.760,0.00420213697872898
412,2.766,0.00443145135676596
413,2.773,0.00435501323075363
414,2.779,0.00385914538764802
415,2.786,0.00376702764604342
416,2.792,0.00354359312385354
417,2.799,0.00366119024079558
418,2.805,0.00353771326800644
419,2.812,0.00387678495518932
420,2.818,0.00412961875661472
421,2.825,0.00406298039034756
422,2.831,0.00362003124986587
423,2.838,0.00307908451193247
424,2.844,0.00268709412212566
425,2.851,0.00302616580930855
426,2.857,0.00356711254724195
427,2.863,0.00339463677572695
428,2.870,0.00310260393532088
429,2.876,0.0028909291248252
430,2.883,0.00269689388187083
431,2.889,0.00247345935968095
432,2.896,0.00229118382842079
433,2.902,0.00236370205053505
434,2.909,0.0025048185908655
435,2.915,0.00302616580930855
436,2.922,0.00336915740038951
437,2.928,0.0039904621682333
438,2.935,0.00364159072130524
439,2.941,0.00307320465608537
440,2.948,0.00314768283014866
441,2.954,0.00385326553180092
442,2.960,0.00368078976028592
443,2.967,0.00291836845211168
444,2.973,0.00293992792355106
445,2.980,0.00213830757639613
446,2.986,0.00226570445308335
447,2.993,0.00234018262714664
448,2.999,0.00264201522729788
449,3.006,0.0027008137857689
450,3.012,0.00254205767789715
451,3.019,0.00241662075315897
452,3.025,0.00202855026725023
453,3.032,0.00198151142047341
454,3.038,0.0025048185908655
455,3.045,0.00252833801425391
456,3.051,0.00256753705323459
457,3.058,0.00231274329986016
458,3.064,0.00282821066245611
459,3.070,0.00307712455998344
460,3.077,0.0034318758627586
461,3.083,0.00359063197063036
462,3.090,0.00313984302235253
463,3.096,0.0028732895572839
464,3.103,0.00281841090271094
465,3.109,0.00282625071050708
466,3.116,0.00303596556905372
467,3.122,0.00344559552640184
468,3.129,0.00393558351366035
469,3.135,0.00414333842025795
470,3.142,0.00459412736853578
471,3.148,0.0058563364237137
472,3.155,0.00752229558039263
473,3.161,0.00850815141075675
474,3.167,0.0080730420780712
475,3.174,0.00659523830849953
476,3.180,0.00506843574020202
477,3.187,0.00424329596965869
478,3.193,0.00360435163427359
479,3.200,0.00347695475758638
480,3.206,0.00368274971223495
481,3.213,0.0041864573631367
482,3.219,0.00379642692527893
483,3.226,0.00359651182647746
484,3.232,0.00288112936508003
485,3.239,0.0028674097014368
486,3.245,0.00291640850016265
487,3.252,0.00324960033149843
488,3.258,0.00398654226433523
489,3.265,0.00542122709102815
490,3.271,0.00667559633840993
491,3.277,0.00780060875715547
492,3.284,0.00830039650415914
493,3.290,0.00848463198736834
494,3.297,0.00753405529208684
495,3.303,0.00536242853255712
496,3.310,0.00331819864971462
497,3.316,0.00255773729348942
498,3.323,0.00256753705323459
499,3.329,0.00265965479483919
500,3.336,0.00271649340136117
501,3.342,0.00284585022999742
502,3.349,0.00249697878306936
503,3.355,0.0025106984467126
504,3.362,0.0026028161883172
505,3.368,0.00289680898067231
506,3.374,0.00308888427167764
507,3.381,0.00312220345481122
508,3.387,0.00313984302235253
509,3.394,0.00288896917287617
510,3.400,0.00310848379116798
511,3.407,0.00367294995248978
512,3.413,0.0057700985379562
513,3.420,0.00857674972897294
514,3.426,0.0107307369209614
515,3.433,0.0112403244277102
516,3.439,0.010654298794949
517,3.446,0.00888838208886936
518,3.452,0.00684807210992492
519,3.459,0.00520955228053247
520,3.465,0.00359847177842649
521,3.472,0.00281253104686384
522,3.478,0.00229706368426789
523,3.484,0.0018658742554804
524,3.491,0.00212066800885483
525,3.497,0.00232842291545244
526,3.504,0.00276549220008703
527,3.510,0.00282625071050708
528,3.517,0.00285369003779356
529,3.523,0.00308300441583054
530,3.530,0.00335935764064434
531,3.536,0.00347499480563735
532,3.543,0.00331819864971462
533,3.549,0.00311632359896412
534,3.556,0.00308888427167764
535,3.562,0.00321824110031389
536,3.569,0.00350635403682189
537,3.575,0.00370430918367433
538,3.581,0.00319472167692548
539,3.588,0.0028674097014368
540,3.594,0.00274589268059669
541,3.601,0.00284585022999742
542,3.607,0.00322804086005906
543,3.614,0.00375330798240018
544,3.620,0.00336523749649144
545,3.627,0.00301244614566531
546,3.633,0.00282233080660901
547,3.640,0.00288112936508003
548,3.646,0.00264593513119595
549,3.653,0.00263417541950175
550,3.659,0.00358671206673229
551,3.666,0.00539182781179263
552,3.672,0.00755169485962814
553,3.679,0.00859438929651425
554,3.685,0.00920589430461287
555,3.691,0.00953320628010155
556,3.698,0.00880998401090799
557,3.704,0.00726554187506917
558,3.711,0.0058386968561724
559,3.717,0.00548982540924434
560,3.724,0.00575637887431297
561,3.730,0.00604841171471904
562,3.737,0.00750661596480036
563,3.743,0.0105876604286819
564,3.750,0.0136197060938375
565,3.756,0.0167399495966997
566,3.763,0.0207029724376465
567,3.769,0.0247522331643509
568,3.776,0.0268219424225308
569,3.782,0.0263221546755271
570,3.788,0.0232705094908811
571,3.795,0.0186842219301415
572,3.801,0.0137353432588305
573,3.808,0.00988991753482575
574,3.814,0.00750073610895326
575,3.821,0.00633652465122704
576,3.827,0.0057524589704149
577,3.834,0.00597981339650285
578,3.840,0.0062130476784379
579,3.847,0.00593277454972603
580,3.853,0.00555254387161343
581,3.860,0.00502335684537424
582,3.866,0.00450592953082925
583,3.873,0.00373762836680791
584,3.879,0.00332995836140883
585,3.886,0.0025969363324701
586,3.892,0.0022225855102046
587,3.898,0.00229510373231886
588,3.905,0.00242250060900607
589,3.911,0.00210890829716062
590,3.918,0.0017561169463345
591,3.924,0.00211870805690579
592,3.931,0.00290268883651941
593,3.937,0.00339267682377792
594,3.944,0.00325548018734553
595,3.950,0.00253421787010101
596,3.957,0.00207166921012898
597,3.963,0.00202855026725023
598,3.970,0.00178355627362097
599,3.976,0.00212850781665096
600,3.983,0.00235390229078988
601,3.989,0.00309672407947378
602,3.995,0.00303988547295179
603,4.002,0.00272041330525924
604,4.008,0.00248325911942612
605,4.015,0.00243818022459834
606,4.021,0.00233822267519761
607,4.028,0.00219122627902005
608,4.034,0.0015660016072782
609,4.041,0.00147780376957166
610,4.047,0.0018482346879391
611,4.054,0.00276941210398509
612,4.060,0.00318100201328224
613,4.067,0.00331819864971462
614,4.073,0.00329075932242815
615,4.080,0.00349851422902576
616,4.086,0.00431777414372198
617,4.093,0.00524483141561508
618,4.099,0.00571717983533229
619,4.105,0.00605429157056614
620,4.112,0.00596021387701251
621,4.118,0.00592689469387893
622,4.125,0.00595237406921637
623,4.131,0.00597197358870671
624,4.138,0.00556038367940956
625,4.144,0.00529971007018804
626,4.151,0.00548394555339723
627,4.157,0.00581125752888592
628,4.164,0.00587201603930597
629,4.170,0.00546826593780496
630,4.177,0.00569366041194388
631,4.183,0.0155776980909225
632,4.190,0.100206463298263
633,4.196,0.588873442943123
634,4.202,2.38614350035149
635,4.209,6.82615396727888
636,4.215,14.7927216557188
637,4.222,25.6552633853007
638,4.228,37.2149502233943
639,4.235,47.4290046115513
640,4.241,55.8439524673237
641,4.248,62.5637770814156
642,4.254,67.4216708633484
643,4.261,70.8479883023796
644,4.267,73.7807663212206
645,4.274,76.4649910736928
646,4.280,78.8126607172848
647,4.287,81.2432598477443
648,4.293,83.8967603934635
649,4.300,86.2108991791114
650,4.306,88.0773927794077
651,4.312,89.8286882439475
652,4.319,91.2907418396568
653,4.325,92.4222142600263
654,4.332,93.7848120540338
