#"+EI TIC Scan LOHC007_GS1_01.d "
#Point,X(Minutes),Y(Counts)
0,0.095,1.4024136931063
1,0.099,1.42786015571539
2,0.103,1.45894270642319
3,0.106,1.48613628324186
4,0.110,1.50737943760613
5,0.113,1.52160489472687
6,0.117,1.52789889194216
7,0.121,1.53430254067688
8,0.124,1.54908356549606
9,0.128,1.56246105086654
10,0.131,1.56528274996654
11,0.135,1.5609478598984
12,0.139,1.55877675981368
13,0.142,1.56428126608908
14,0.146,1.57306069774478
15,0.149,1.57982985154427
16,0.153,1.58494692245101
17,0.156,1.58855080238961
18,0.160,1.58806833570412
19,0.164,1.58241031730153
20,0.167,1.57315572906162
21,0.171,1.56317744079348
22,0.174,1.55452959096109
23,0.178,1.54643730882714
24,0.182,1.53813303375564
25,0.185,1.53240191434009
26,0.189,1.52944863341677
27,0.192,1.52338855944293
28,0.196,1.51099062764603
29,0.200,1.50185300102685
30,0.203,1.50065414441441
31,0.207,1.49965266053695
32,0.210,1.49281040572451
33,0.214,1.48150167902062
34,0.217,1.46808764314366
35,0.221,1.45424231129028
36,0.225,1.44590879581359
37,0.228,1.44104757845219
38,0.232,1.43560155298716
39,0.235,1.42769933348689
40,0.239,1.41869328869103
41,0.243,1.4101112297703
42,0.246,1.40084202132781
43,0.250,1.39156550278402
44,0.253,1.3823255347467
45,0.257,1.36951092717597
46,0.261,1.3576831832801
47,0.264,1.35647701656637
48,0.268,1.35678404082078
49,0.271,1.34557765553501
50,0.275,1.33024837311868
51,0.278,1.32258738696116
52,0.282,1.319860719178
53,0.286,1.31626414934069
54,0.289,1.31014559455649
55,0.293,1.30143195381244
56,0.296,1.29226508678808
57,0.300,1.28427514607227
58,0.304,1.27545916391009
59,0.307,1.2638214826479
60,0.311,1.25448648329375
61,0.314,1.25706694905101
62,0.318,1.256299388415
63,0.322,1.24567781123286
64,0.325,1.23317022791653
65,0.329,1.22161295776859
66,0.332,1.21681753131885
67,0.336,1.22106470017144
68,0.339,1.22462471950228
69,0.343,1.22580164581083
70,0.347,1.22604287915357
71,0.350,1.22276064367196
72,0.354,1.21866698694657
73,0.357,1.21994625467326
74,0.361,1.21941992737999
75,0.365,1.2096828724546
76,0.368,1.19353485869318
77,0.372,1.18120271780794
78,0.375,1.17946291369965
79,0.379,1.18297176232141
80,0.383,1.18005503190457
81,0.386,1.17648770247244
82,0.390,1.17696285905664
83,0.393,1.17794972273151
84,0.397,1.17525960545483
85,0.400,1.17391454681648
86,0.404,1.17751842675509
87,0.408,1.17534732667037
88,0.411,1.16139965339886
89,0.415,1.153804458153
90,0.418,1.15886304824937
91,0.422,1.16708691220663
92,0.426,1.1684027304398
93,0.429,1.15643609461932
94,0.433,1.14290509712164
95,0.436,1.13711549689573
96,0.440,1.14022228994625
97,0.443,1.1476785932675
98,0.447,1.15462318949807
99,0.451,1.15673580877243
100,0.454,1.15482056223305
101,0.458,1.14683062151724
102,0.461,1.13945472931024
103,0.465,1.13895764242216
104,0.469,1.13996643640091
105,0.472,1.13121624515039
106,0.476,1.12437399033795
107,0.479,1.12645736920712
108,0.483,1.12761967531308
109,0.487,1.12650853991619
110,0.490,1.12527313279727
111,0.494,1.12049232655012
112,0.497,1.11749518501903
113,0.501,1.11357697072473
114,0.504,1.10957834531617
115,0.508,1.11229039289675
116,0.512,1.11596006374701
117,0.515,1.12156691144054
118,0.519,1.12725417024831
119,0.522,1.12737113186904
120,0.526,1.12528775299986
121,0.530,1.13019283096904
122,0.533,1.13232007044598
123,0.537,1.12147919022499
124,0.540,1.10615721790995
125,0.544,1.10310890566979
126,0.548,1.10814556546229
127,0.551,1.11651563144545
128,0.555,1.12129643769261
129,0.558,1.11919843862084
130,0.562,1.10854031093223
131,0.565,1.0971438630128
132,0.569,1.09589383569129
133,0.573,1.10049919950736
134,0.576,1.11324801616644
135,0.580,1.13281715733407
136,0.583,1.14275889509573
137,0.587,1.12512693077137
138,0.591,1.10358406225399
139,0.594,1.10101821669933
140,0.598,1.10161033490425
141,0.601,1.09504586394103
142,0.605,1.09049898093533
143,0.609,1.08793313538066
144,0.612,1.08157334725372
145,0.616,1.07361264694309
146,0.619,1.07130265493376
147,0.623,1.0757910571291
148,0.626,1.08405878169413
149,0.630,1.09151508501538
150,0.634,1.09329874973145
151,0.637,1.08902965057497
152,0.641,1.08378099784491
153,0.644,1.08412457260579
154,0.648,1.08516991709102
155,0.652,1.08313770893092
156,0.655,1.07663171877806
157,0.659,1.06737713053816
158,0.662,1.06029364238297
159,0.666,1.07111259230008
160,0.670,1.08659538684362
161,0.673,1.08926357381642
162,0.677,1.08726060606149
163,0.680,1.09313792750295
164,0.684,1.09968777826357
165,0.687,1.09809417618119
166,0.691,1.09328412952885
167,0.695,1.08454855848092
168,0.698,1.07493577527754
169,0.702,1.07267695397728
170,0.705,1.07117107311044
171,0.709,1.06649991838272
172,0.713,1.06416068596821
173,0.716,1.0637001495866
174,0.720,1.06162408081873
175,0.723,1.05877314131354
176,0.727,1.05938718982235
177,0.730,1.05970883427935
178,0.734,1.06115623433582
179,0.738,1.06357587786458
180,0.741,1.0637001495866
181,0.745,1.06070300805551
182,0.748,1.06584200926614
183,0.752,1.07564485510319
184,0.756,1.076258903612
185,0.759,1.06973098315526
186,0.763,1.06207730709904
187,0.766,1.0524060430853
188,0.770,1.04624362769332
189,0.774,1.04944545206068
190,0.777,1.05340021686146
191,0.781,1.04878023284281
192,0.784,1.04111193658399
193,0.788,1.04166019418114
194,0.791,1.05103905414307
195,0.795,1.05916788678349
196,0.799,1.06293989905189
197,0.802,1.06198958588349
198,0.806,1.05905092516276
199,0.809,1.05872928070577
200,0.813,1.06409489505655
201,0.817,1.06473087386925
202,0.820,1.0545990734739
203,0.824,1.04497898016923
204,0.827,1.05041769553297
205,0.831,1.05817371300732
206,0.835,1.05558593714877
207,0.838,1.04940890155421
208,0.842,1.045344485234
209,0.845,1.04495704986534
210,0.849,1.04514711249902
211,0.852,1.04287367099617
212,0.856,1.04062215979721
213,0.860,1.04557840847545
214,0.863,1.0605641161309
215,0.867,1.06720899820837
216,0.870,1.05200398751405
217,0.874,1.03381645549124
218,0.878,1.02606043801688
219,0.881,1.01940093573683
220,0.885,1.01409380219641
221,0.888,1.02342149144926
222,0.892,1.04119965779954
223,0.896,1.05181392488038
224,0.899,1.05214287943867
225,0.903,1.04638251961794
226,0.906,1.03454746562078
227,0.910,1.03223016351015
228,0.913,1.03803438393865
229,0.917,1.03863381224487
230,0.921,1.0316892160143
231,0.924,1.02915992096611
232,0.928,1.03677704651586
233,0.931,1.04651410144125
234,0.935,1.05294699058115
235,0.939,1.05540318461639
236,0.942,1.05417508759877
237,0.946,1.05174082386742
238,0.949,1.04629479840239
239,0.953,1.03954757490679
240,0.957,1.0357682525371
241,0.960,1.03935020217182
242,0.964,1.04171136489021
243,0.967,1.03869960315653
244,0.971,1.0362434091213
245,0.974,1.03845836981378
246,0.978,1.03795397282441
247,0.982,1.0332608877928
248,0.985,1.02656483500626
249,0.989,1.02515398545626
250,0.992,1.03242022614383
251,0.996,1.03694517884565
252,1.000,1.03858264153581
253,1.003,1.03645540205886
254,1.007,1.03062925132647
255,1.010,1.02910144015575
256,1.014,1.03441588379746
257,1.018,1.04135316992674
258,1.021,1.03943061328607
259,1.025,1.03236174533347
260,1.028,1.02834849972233
261,1.032,1.03116288872103
262,1.035,1.02837774012751
263,1.039,1.01760996091947
264,1.043,1.01214931525185
265,1.046,1.0192839741161
266,1.050,1.02073137417258
267,1.053,1.01592863762154
268,1.057,1.01469323050263
269,1.061,1.01845793266973
270,1.064,1.01899157006429
271,1.068,1.01246364960755
272,1.071,1.00872087774433
273,1.075,1.01444468705858
274,1.078,1.02357500357647
275,1.082,1.02488351170833
276,1.086,1.02663793601922
277,1.089,1.03211320188943
278,1.093,1.03462056663373
279,1.096,1.0315357038871
280,1.100,1.0258703753832
281,1.104,1.02171092774615
282,1.107,1.01885998824097
283,1.111,1.0152122476946
284,1.114,1.012697572849
285,1.118,1.01293149609045
286,1.122,1.01801201649071
287,1.125,1.0279245138472
288,1.129,1.03586328385394
289,1.132,1.03572439192933
290,1.136,1.02975203917103
291,1.139,1.02914530076352
292,1.143,1.03190120895186
293,1.147,1.0308924149731
294,1.150,1.02426215309823
295,1.154,1.01910122158372
296,1.157,1.01364788601739
297,1.161,1.00802641812127
298,1.165,1.00671059988811
299,1.168,1.00975160202697
300,1.172,1.01500025475703
301,1.175,1.017251765956
302,1.179,1.01743451848838
303,1.183,1.01707632352491
304,1.186,1.02027814789227
305,1.190,1.02639670267647
306,1.193,1.02505164403813
307,1.197,1.01637455380055
308,1.200,1.00783635548759
309,1.204,1.00304823913914
310,1.208,1.00478073314614
311,1.211,1.00277045528992
312,1.215,0.995672346932144
313,1.218,0.991637171017115
314,1.222,0.995306841867377
315,1.226,1.00158621888008
316,1.229,1.00728078778915
317,1.233,1.01392566986661
318,1.236,1.01418883351325
319,1.240,1.01025599901635
320,1.244,1.00705417464899
321,1.247,1.00599420996117
322,1.251,1.00781442518371
323,1.254,1.01015365759822
324,1.258,1.0104899222578
325,1.261,1.01140368491972
326,1.265,1.01104548995625
327,1.269,1.00903521210003
328,1.272,1.0061038614806
329,1.276,1.0040570331179
330,1.279,1.0046857018293
331,1.283,1.01050454246039
332,1.287,1.01758072051429
333,1.290,1.0227416520288
334,1.294,1.02112611964253
335,1.297,1.01671812856144
336,1.301,1.01270488295029
337,1.305,1.01230282737905
338,1.308,1.01336279206687
339,1.312,1.0123832384933
340,1.315,1.00746354032153
341,1.319,1.00331140278578
342,1.322,1.00088444915572
343,1.326,1.00048239358448
344,1.330,0.999839104670489
345,1.333,0.999195815756499
346,1.337,0.999802554164013
347,1.340,1.0032748522793
348,1.344,1.00697376353474
349,1.348,1.00796062720962
350,1.351,1.00875011814951
351,1.355,1.01334086176299
352,1.358,1.01691550129641
353,1.362,1.01244171930366
354,1.366,1.00489038466557
355,1.369,1.00569449580806
356,1.373,1.01293149609045
357,1.376,1.01680584977698
358,1.380,1.00859660602231
359,1.383,0.997624143978001
360,1.387,0.992368181146649
361,1.391,0.996834653038104
362,1.394,1.00334064319096
363,1.398,1.0024853613394
364,1.401,0.995409183285512
365,1.405,0.991688341726182
366,1.409,0.993976403431625
367,1.412,0.994882855992247
368,1.416,0.99516063984147
369,1.419,0.992660585198463
370,1.423,0.989626893160896
371,1.426,0.995029058018154
372,1.430,1.00588455844174
373,1.434,1.01329700115522
374,1.437,1.01343589307983
375,1.441,1.00600883016376
376,1.444,0.998282053094582
377,1.448,0.995197190347947
378,1.452,0.996235224731886
379,1.455,0.99377903069665
380,1.459,0.989436830527217
381,1.462,0.98480222630597
382,1.466,0.984100456581617
383,1.470,0.989568412350533
384,1.473,0.994137225660122
385,1.477,0.9929164387438
386,1.480,0.988281834522553
387,1.484,0.989305248703901
388,1.487,0.990482175012451
389,1.491,0.988837402220999
390,1.495,0.986717472845349
391,1.498,0.99131552656012
392,1.502,0.999736763252355
393,1.505,1.00551174327568
394,1.509,1.00968581111532
395,1.513,1.01168146876894
396,1.516,1.00816531004588
397,1.520,0.998815690489142
398,1.523,0.99205384679095
399,1.527,0.989239457792243
400,1.531,0.988530377966594
401,1.534,0.988230663813485
402,1.538,0.989838886098461
403,1.541,0.992960299351572
404,1.545,0.992251219525924
405,1.548,0.995058298423335
406,1.552,0.999554010719971
407,1.556,0.999356637984997
408,1.559,0.991132774027736
409,1.563,0.981973217104672
410,1.566,0.978493608888089
411,1.570,0.982587265613481
412,1.574,0.988420726447164
413,1.577,0.992762926616598
414,1.581,0.994400389306755
415,1.584,0.993998333735511
416,1.588,0.992865268034733
417,1.592,0.990796509368151
418,1.595,0.990716098253902
419,1.599,0.99067223764613
420,1.602,0.990613756835767
421,1.606,0.990189770960637
422,1.609,0.99131552656012
423,1.613,0.993574347860381
424,1.617,0.998735279374893
425,1.620,1.00156428857619
426,1.624,1.00267542397308
427,1.627,1.00118416330883
428,1.631,1.0009209996622
429,1.635,1.00095755016868
430,1.638,0.999510150112199
431,1.642,0.9958989600723
432,1.645,0.991564070004162
433,1.649,0.988793541613227
434,1.653,0.989319868906491
435,1.656,0.990094739643798
436,1.660,0.987353451658044
437,1.663,0.981030214037573
438,1.667,0.976826905792751
439,1.670,0.977587156327467
440,1.674,0.981805084774879
441,1.678,0.982974700982134
442,1.681,0.985196971775918
443,1.685,0.989773095186803
444,1.688,0.991681031624887
445,1.692,0.989078635563745
446,1.696,0.991388627573073
447,1.699,1.00260232296013
448,1.703,1.0082968918692
449,1.706,1.0017031805008
450,1.710,0.992909128642505
451,1.714,0.987952879964262
452,1.717,0.983552198984466
453,1.721,0.981863565585242
454,1.724,0.984275899012705
455,1.728,0.985460135422551
456,1.731,0.983486408072808
457,1.735,0.984137007088093
458,1.739,0.986658992034987
459,1.742,0.988318385029029
460,1.746,0.986666302136282
461,1.749,0.984772985900788
462,1.753,0.982214450447418
463,1.757,0.980759740289645
464,1.760,0.980357684718401
465,1.764,0.981571161533428
466,1.767,0.984312449519182
467,1.771,0.986885605175142
468,1.774,0.986373898084468
469,1.778,0.984882637420218
470,1.782,0.985262762687576
471,1.785,0.982009767611149
472,1.789,0.975657289585496
473,1.792,0.978266995747933
474,1.796,0.98706104760623
475,1.800,0.99302609026323
476,1.803,0.996198674225409
477,1.807,0.99665190050572
478,1.810,0.989743854781621
479,1.814,0.980825531201303
480,1.818,0.978998005877468
481,1.821,0.987090288011412
482,1.825,0.997214778305461
483,1.828,0.998969202616344
484,1.832,0.990964641697944
485,1.835,0.983961564657005
486,1.839,0.986688232440168
487,1.843,0.997887307624633
488,1.846,1.00071631682593
489,1.850,0.988800851714522
490,1.853,0.977762598758555
491,1.857,0.974341471352334
492,1.861,0.972623597547929
493,1.864,0.969758037840154
494,1.868,0.971614803569172
495,1.871,0.983135523210632
496,1.875,0.991885714461157
497,1.879,0.995774688350279
498,1.882,0.995577315615305
499,1.886,0.987382692063226
500,1.889,0.978698291724359
501,1.893,0.977835699771508
502,1.896,0.983113592906745
503,1.900,0.986161905146903
504,1.904,0.984436721241203
505,1.907,0.981549231229542
506,1.911,0.980043350362702
507,1.914,0.980423475630059
508,1.918,0.981731983761926
509,1.922,0.98373495151685
510,1.925,0.984626783874881
511,1.929,0.983471787870217
512,1.932,0.979941008944567
513,1.936,0.973537360209847
514,1.940,0.973332677373577
515,1.943,0.975693840091973
516,1.947,0.972755179371245
517,1.950,0.967974373124091
518,1.954,0.971066545972021
519,1.957,0.978478988685498
520,1.961,0.981498060520475
521,1.965,0.976103205764512
522,1.968,0.970262434829533
523,1.972,0.969509494396113
524,1.975,0.973727422843526
525,1.979,0.979670535196639
526,1.983,0.982872359563999
527,1.986,0.982251000953895
528,1.990,0.985270072788872
529,1.993,0.993157672086546
530,1.997,0.997244018710643
531,2.001,0.993018780161935
532,2.004,0.984129696986798
533,2.008,0.978164654329798
534,2.011,0.979838667526432
535,2.015,0.988808161815817
536,2.018,0.996951614658829
537,2.022,0.997748415700021
538,2.026,0.991154704331622
539,2.029,0.98320131412229
540,2.033,0.979626674588867
541,2.036,0.980745120087055
542,2.040,0.984232038404933
543,2.044,0.985657508157525
544,2.047,0.986373898084468
545,2.051,0.988793541613227
546,2.054,0.993837511507013
547,2.058,0.996198674225409
548,2.062,0.988449966852346
549,2.065,0.974019826895339
550,2.069,0.970152783310103
551,2.072,0.979451232157779
552,2.076,0.985365104105711
553,2.079,0.980949802923324
554,2.083,0.975481847154408
555,2.087,0.974261060238086
556,2.090,0.975065171380573
557,2.094,0.980211482692494
558,2.097,0.985065389952602
559,2.101,0.984539062659337
560,2.105,0.982689607031616
561,2.108,0.987236490037319
562,2.112,0.993062640769707
563,2.115,0.992075777094836
564,2.119,0.983003941387315
565,2.122,0.976541811842232
566,2.126,0.974736216822283
567,2.130,0.978142724025913
568,2.133,0.982163279738351
569,2.137,0.984553682861928
570,2.140,0.987660475912449
571,2.144,0.989254077994833
572,2.148,0.9905625861267
573,2.151,0.987865158748718
574,2.155,0.981117935253117
575,2.158,0.977155860351041
576,2.162,0.979502402866846
577,2.166,0.984794916204674
578,2.169,0.988033291078511
579,2.173,0.986929465782914
580,2.176,0.980299203908039
581,2.180,0.975796181510107
582,2.183,0.974633875404148
583,2.187,0.972601667244043
584,2.191,0.972199611672799
585,2.194,0.977587156327467
586,2.198,0.981388409001045
587,2.201,0.978595950306224
588,2.205,0.976804975488865
589,2.209,0.976461400727984
590,2.212,0.97766025734042
591,2.216,0.981848945382651
592,2.219,0.987645855709858
593,2.223,0.989451450729808
594,2.227,0.984400170734726
595,2.230,0.974282990541972
596,2.234,0.970386706551554
597,2.237,0.977594466428762
598,2.241,0.984356310126954
599,2.244,0.980050660463997
600,2.248,0.975518397660885
601,2.252,0.976147066372284
602,2.255,0.975883902725652
603,2.259,0.975913143130833
604,2.262,0.974750837024874
605,2.266,0.973932105679795
606,2.270,0.976885386603114
607,2.273,0.980686639276692
608,2.277,0.975927763333424
609,2.280,0.971490531847151
610,2.284,0.975957003738605
611,2.288,0.981878185787833
612,2.291,0.982835809057522
613,2.295,0.98139571910234
614,2.298,0.979707085703116
615,2.302,0.978171964431094
616,2.305,0.97701696842643
617,2.309,0.976380989613735
618,2.313,0.977258201769176
619,2.316,0.98012376147695
620,2.320,0.982821188854932
621,2.323,0.983398686857264
622,2.327,0.982002457509853
623,2.331,0.977082759338088
624,2.334,0.970467117665803
625,2.338,0.969699557029792
626,2.341,0.972309263192229
627,2.345,0.970233194424352
628,2.349,0.967616178160619
629,2.352,0.971958378330053
630,2.356,0.97990445843809
631,2.359,0.989224837589652
632,2.363,1.02408671066714
633,2.366,1.16327103933046
634,2.370,1.61516688120596
635,2.374,2.92544405758576
636,2.377,6.2469274730493
637,2.381,13.0393200845545
638,2.384,23.8495709811201
639,2.388,37.8659226543036
640,2.392,53.4686832701972
641,2.395,68.2412503021813
642,2.399,79.7870143506792
643,2.402,87.9546563188771
644,2.406,94.031631246911
645,2.410,98.2213427033237
646,2.413,100
647,2.417,99.4761727613783
648,2.420,96.7777219692155
649,2.424,91.6280407005972
650,2.427,84.3831893694168
651,2.431,75.8446255513918
652,2.435,66.0065157856886
653,2.438,54.9774004563404
654,2.442,44.2453164729258
655,2.445,35.0752987949079
656,2.449,27.3456854064281
657,2.453,20.9050987298626
658,2.456,16.1107176246031
659,2.460,12.8925551808479
660,2.463,10.7058407197643
661,2.467,9.3123161098331
662,2.470,8.88417078706618
663,2.474,9.01071595058986
664,2.478,9.47039705034489
665,2.481,10.04435696365
666,2.485,10.3748247129086
667,2.488,10.0766237507677
668,2.492,9.18480601293844
669,2.496,8.04147692994167
670,2.499,6.85910459592647
671,2.503,5.73068080947091
672,2.506,4.80553631983623
673,2.510,4.14249551214606
674,2.514,3.63273290841664
675,2.517,3.20477764828339
676,2.521,2.86901738568701
677,2.524,2.63655616449512
678,2.528,2.44169810436646
679,2.531,2.30921713859097
680,2.535,2.37101673494179
681,2.539,2.83998166334191
682,2.542,4.24537056767542
683,2.546,7.20961664293686
684,2.549,11.8794921029341
685,2.553,17.7055039433976
686,2.557,23.6067659665953
687,2.560,27.8998203250203
688,2.564,28.9017428085599
689,2.567,26.4265278897543
690,2.571,21.8162809260232
691,2.575,16.4575746209658
692,2.578,11.3114022009692
693,2.582,7.22071337670319
694,2.585,4.57565556440159
695,2.589,3.08330569505869
696,2.592,2.28143144356737
697,2.596,1.87766530862041
698,2.600,1.69491277623685
699,2.603,1.61490371755932
700,2.607,1.60886557388937
701,2.610,1.70208398560758
702,2.614,1.93004218440154
703,2.618,2.34092104790887
704,2.621,2.94064175817878
705,2.625,3.60818558826688
706,2.628,4.13245143296626
707,2.632,4.35545338308198
708,2.636,4.22102793036193
