#"+EI TIC Scan LOHC011_01_LQ1.d "
#Point,X(Minutes),Y(Counts)
0,0.101,0.271558356278397
1,0.108,0.261626376440569
2,0.114,0.250296000798602
3,0.121,0.238064249547943
4,0.127,0.225040635613013
5,0.134,0.214847509570798
6,0.140,0.208040860114508
7,0.147,0.198858622605405
8,0.153,0.18900245940756
9,0.160,0.180561540156073
10,0.166,0.174875292157316
11,0.173,0.168936322025281
12,0.179,0.162230761422303
13,0.185,0.158372536854258
14,0.192,0.158574714560881
15,0.198,0.156333911645815
16,0.205,0.148272075594245
17,0.211,0.145273106279345
18,0.218,0.143891558617425
19,0.224,0.140311328395985
20,0.231,0.13553488007703
21,0.237,0.132409549695491
22,0.244,0.12850078070079
23,0.250,0.125653444665857
24,0.257,0.124819461626039
25,0.263,0.122578658710974
26,0.270,0.121828916382249
27,0.276,0.1242382007195
28,0.283,0.125889318656917
29,0.289,0.125661868736966
30,0.295,0.122149031084401
31,0.302,0.118838371138458
32,0.308,0.116673384863376
33,0.315,0.114828513290446
34,0.321,0.114592639299387
35,0.328,0.115300261272565
36,0.334,0.114457854161639
37,0.341,0.11282358436644
38,0.347,0.112301291957666
39,0.354,0.10971510212712
40,0.360,0.109403411496077
41,0.367,0.106286505185648
42,0.373,0.105123983372568
43,0.380,0.10302638966636
44,0.386,0.101467936511146
45,0.392,0.101720658644424
46,0.399,0.100684497897984
47,0.405,0.101720658644424
48,0.412,0.103481289506261
49,0.418,0.10510713523035
50,0.425,0.102765243461973
51,0.431,0.0994798557293582
52,0.438,0.100768738609076
53,0.444,0.100600257186891
54,0.451,0.0979550988585805
55,0.457,0.0961354994989784
56,0.464,0.0979887951430176
57,0.470,0.0998926352137124
58,0.477,0.0995893686537787
59,0.483,0.0990923484583318
60,0.490,0.1001537814181
61,0.496,0.100810858964623
62,0.502,0.0997578500759641
63,0.509,0.0980056432852361
64,0.515,0.0966914881921901
65,0.522,0.095874353294591
66,0.528,0.0950993387525383
67,0.535,0.0931112579707508
68,0.541,0.0945096537748894
69,0.548,0.0961439235700876
70,0.554,0.0982583654185142
71,0.561,0.0986542967606498
72,0.567,0.0986037523339942
73,0.574,0.0984773912673552
74,0.580,0.0988312022539445
75,0.587,0.09784558593416
76,0.593,0.0973232935253853
77,0.599,0.0959333217923559
78,0.606,0.0958069607257169
79,0.612,0.0962365883522896
80,0.619,0.0955205423080017
81,0.625,0.094307476068267
82,0.632,0.0971126917476536
83,0.638,0.0981067321385473
84,0.645,0.0973738379520409
85,0.651,0.0946107426282007
86,0.658,0.0943243242104855
87,0.664,0.0950740665392105
88,0.671,0.0953183646013793
89,0.677,0.094181115001628
90,0.684,0.0943327482815948
91,0.690,0.0944085649215782
92,0.697,0.0925973896330854
93,0.703,0.0903902830024569
94,0.709,0.0895647240337485
95,0.716,0.0916538936688472
96,0.722,0.0933555560329196
97,0.729,0.0944843815615616
98,0.735,0.0942485075705021
99,0.742,0.093305011606264
100,0.748,0.0905840366379701
101,0.755,0.0919150398732346
102,0.761,0.0959164736501374
103,0.768,0.0968010011166106
104,0.774,0.0944506852771246
105,0.781,0.0922772749309332
106,0.787,0.0916960140243936
107,0.794,0.0906514292068442
108,0.800,0.0924541804242278
109,0.806,0.0945517741304358
110,0.813,0.093869424370585
111,0.819,0.0929848969041118
112,0.826,0.0930354413307674
113,0.832,0.0908451828423574
114,0.839,0.0901881052958344
115,0.845,0.0916960140243936
116,0.852,0.0952846683169422
117,0.858,0.0957901125834983
118,0.865,0.0956047830190944
119,0.871,0.0953857571702534
120,0.878,0.0931196820418601
121,0.884,0.0913506271089135
122,0.891,0.0930944098285322
123,0.897,0.0924963007797742
124,0.904,0.0926058137041946
125,0.910,0.0907440939890462
126,0.916,0.0897584776692617
127,0.923,0.0889666149849904
128,0.929,0.0891182482649573
129,0.936,0.0879557264518781
130,0.942,0.0885538355006362
131,0.949,0.0919234639443439
132,0.955,0.0937093670195089
133,0.962,0.094745527765949
134,0.968,0.0929343524774561
135,0.975,0.092555269277539
136,0.981,0.0918560713754697
137,0.988,0.090988392051215
138,0.994,0.0907272458468276
139,1.001,0.0901038645847417
140,1.007,0.0901291367980695
141,1.013,0.091552804815536
142,1.020,0.0925047248508834
143,1.026,0.0919992805843273
144,1.033,0.0921424897931848
145,1.039,0.0932039227529528
146,1.046,0.0936588225928533
147,1.052,0.0914685641044433
148,1.059,0.0900364720158676
149,1.065,0.0898174461670266
150,1.072,0.0884948670028713
151,1.078,0.088890798345007
152,1.085,0.0886970447094938
153,1.091,0.0883937781495601
154,1.098,0.0894467870382187
155,1.104,0.0907188217757184
156,1.110,0.0910557846200891
157,1.117,0.0877198524608186
158,1.123,0.0883516577940138
159,1.130,0.0897584776692617
160,1.136,0.0921677620065127
161,1.143,0.0927911432685986
162,1.149,0.0927995673397078
163,1.156,0.0924036359975722
164,1.162,0.0909715439089964
165,1.169,0.089985927589212
166,1.175,0.0899606553758842
167,1.182,0.0900364720158676
168,1.188,0.0878967579541132
169,1.195,0.0874839784697591
170,1.201,0.089328850042689
171,1.208,0.0915359566733175
172,1.214,0.0899943516603212
173,1.220,0.0882084485851562
174,1.227,0.0873828896164478
175,1.233,0.0869785342032029
176,1.240,0.0865657547188487
177,1.246,0.0876945802474908
178,1.253,0.0889497668427719
179,1.259,0.089674236958169
180,1.266,0.0873491933320108
181,1.272,0.0874081618297756
182,1.279,0.0867426602121434
183,1.285,0.0868184768521268
184,1.292,0.0876945802474908
185,1.298,0.0890508556960831
186,1.305,0.0900027757314305
187,1.311,0.0903818589313476
188,1.317,0.0901038645847417
189,1.324,0.0874839784697591
190,1.330,0.0872565285498088
191,1.337,0.0890003112694275
192,1.343,0.0891940649049407
193,1.350,0.0895141796070929
194,1.356,0.0908536069134667
195,1.363,0.0901965293669437
196,1.369,0.0909546957667779
197,1.376,0.0906177329224071
198,1.382,0.0881157838029542
199,1.389,0.0883348096517952
200,1.395,0.0887560132072587
201,1.402,0.0896236925315134
202,1.408,0.0898595665225729
203,1.415,0.0915191085310989
204,1.421,0.091679165882175
205,1.427,0.0907356699179369
206,1.434,0.0870711989854049
207,1.440,0.0863046085144614
208,1.447,0.0864730899366468
209,1.453,0.0882674170829211
210,1.460,0.0877872450296927
211,1.466,0.0861866715189316
212,1.473,0.0856475309679384
213,1.479,0.0862035196611502
214,1.486,0.0893120019004705
215,1.492,0.0898005980248081
216,1.499,0.0873323451897922
217,1.505,0.0855885624701735
218,1.512,0.0854622014035345
219,1.518,0.0857064994657033
220,1.524,0.0861192789500575
221,1.531,0.0873660414742293
222,1.537,0.0882084485851562
223,1.544,0.0884022022206694
224,1.550,0.0883516577940138
225,1.557,0.0896995091714968
226,1.563,0.0898005980248081
227,1.570,0.0896573888159505
228,1.576,0.0882589930118118
229,1.583,0.0886801965672753
230,1.589,0.0889244946294441
231,1.596,0.0895562999626393
232,1.602,0.0897753258114802
233,1.609,0.0897332054559339
234,1.615,0.0889581909138811
235,1.622,0.0873154970475737
236,1.628,0.0851083904169452
237,1.634,0.0861445511633853
238,1.641,0.0882589930118118
239,1.647,0.0896321166026227
240,1.654,0.0895731481048578
241,1.660,0.0915275326022082
242,1.667,0.091114753117854
243,1.673,0.0872228322653717
244,1.680,0.085698075394594
245,1.686,0.086447817723319
246,1.693,0.0860771585945111
247,1.699,0.0886549243539475
248,1.706,0.0911063290467447
249,1.712,0.08989326280701
250,1.719,0.0885622595717455
251,1.725,0.0878040931719113
252,1.731,0.0888149817050236
253,1.738,0.0884358985051065
254,1.744,0.0899522313047749
255,1.751,0.0918560713754697
256,1.757,0.0908367587712481
257,1.764,0.0891687926916129
258,1.770,0.0884443225762157
259,1.777,0.0860518863811833
260,1.783,0.0864730899366468
261,1.790,0.089985927589212
262,1.796,0.0905334922113145
263,1.803,0.089674236958169
264,1.809,0.087323921118683
265,1.816,0.088890798345007
266,1.822,0.0901796812247252
267,1.829,0.0896910851003875
268,1.835,0.089455211109328
269,1.841,0.0907440939890462
270,1.848,0.0907609421312647
271,1.854,0.0903734348602383
272,1.861,0.090331314504692
273,1.867,0.088671772496166
274,1.874,0.0878546375985669
275,1.880,0.0907777902734833
276,1.887,0.0910052401934335
277,1.893,0.091207417900056
278,1.900,0.0894215148248909
279,1.906,0.0887897094916958
280,1.913,0.0880989356607357
281,1.919,0.0868100527810175
282,1.926,0.0864646658655375
283,1.932,0.0876945802474908
284,1.938,0.0905924607090793
285,1.945,0.0914938363177711
286,1.951,0.0892867296871426
287,1.958,0.0879894227363152
288,1.964,0.0871722878387161
289,1.971,0.0869111416343288
290,1.977,0.0870038064165307
291,1.984,0.0868942934921102
292,1.990,0.0863046085144614
293,1.997,0.0869869582743122
294,2.003,0.0878293653852391
295,2.010,0.0877282765319279
296,2.016,0.0864309695811004
297,2.023,0.0865404825055209
298,2.029,0.0888065576339143
299,2.036,0.0907272458468276
300,2.042,0.0905334922113145
301,2.048,0.0901207127269603
302,2.055,0.091679165882175
303,2.061,0.0913506271089135
304,2.068,0.0900280479447583
305,2.074,0.0880652393762986
306,2.081,0.0861698233767131
307,2.087,0.0858665568167794
308,2.094,0.0864141214388819
309,2.100,0.0862203678033687
310,2.107,0.0868605972076732
311,2.113,0.0877872450296927
312,2.120,0.0874334340431034
313,2.126,0.089017159411646
314,2.133,0.0895057555359836
315,2.139,0.0887391650650401
316,2.145,0.0891856408338314
317,2.152,0.0879388783096596
318,2.158,0.0870711989854049
319,2.165,0.0868184768521268
320,2.171,0.0872902248342459
321,2.178,0.0885285632873084
322,2.184,0.0882674170829211
323,2.191,0.0899522313047749
324,2.197,0.0900785923714139
325,2.204,0.0894383629671095
326,2.210,0.0868184768521268
327,2.217,0.0872396804075903
328,2.223,0.0873660414742293
329,2.230,0.0873491933320108
330,2.236,0.0870375027009678
331,2.243,0.088107359731845
332,2.249,0.0907188217757184
333,2.255,0.101333151373397
334,2.262,0.123294704755262
335,2.268,0.170772769527102
336,2.275,0.241804537120459
337,2.281,0.316686105210751
338,2.288,0.368283540755024
339,2.294,0.395804981069006
340,2.301,0.411827564318836
341,2.307,0.418111921366351
342,2.314,0.418878511837294
343,2.320,0.417379027179844
344,2.327,0.414489570789365
345,2.333,0.40555163134243
346,2.340,0.399747446348144
347,2.346,0.397936271059651
348,2.352,0.391862515789868
349,2.359,0.384761023844754
350,2.365,0.382242226583083
351,2.372,0.378291337232836
352,2.378,0.378661996361644
353,2.385,0.396841141815446
354,2.391,0.412990086131915
355,2.398,0.331495622220846
356,2.404,0.161876950435714
357,2.411,0.0342943934858343
358,2.417,0
359,2.424,0
360,2.430,0
361,2.437,0
362,2.443,0
363,2.450,0
364,2.456,0
365,2.462,0
366,2.469,0
367,2.475,0
368,2.482,0
369,2.488,0
370,2.495,0
371,2.501,0
372,2.508,0
373,2.514,0
374,2.521,0
375,2.527,0
376,2.534,0
377,2.540,0
378,2.547,0
379,2.553,0
380,2.559,0
381,2.566,0
382,2.572,0
383,2.579,0
384,2.585,0
385,2.592,0
386,2.598,0
387,2.605,0
388,2.611,0
389,2.618,0
390,2.624,0
391,2.631,0
392,2.637,0
393,2.644,0
394,2.650,0
395,2.657,0
396,2.663,0
397,2.669,0
398,2.676,0
399,2.682,0
400,2.689,0
401,2.695,0
402,2.702,0
403,2.708,0
404,2.715,0
405,2.721,0
406,2.728,0
407,2.734,0
408,2.741,0
409,2.747,0
410,2.754,0
411,2.760,0
412,2.766,0
413,2.773,0
414,2.779,0
415,2.786,0
416,2.792,0
417,2.799,0
418,2.805,0
419,2.812,0
420,2.818,0
421,2.825,0
422,2.831,0
423,2.838,0
424,2.844,0
425,2.851,0
426,2.857,0
427,2.864,0
428,2.870,0
429,2.876,0
430,2.883,0
431,2.889,0
432,2.896,0
433,2.902,0
434,2.909,0
435,2.915,0
436,2.922,0
437,2.928,0
438,2.935,0
439,2.941,0
440,2.948,0
441,2.954,0
442,2.961,0
443,2.967,0
444,2.973,0
445,2.980,0
446,2.986,0
447,2.993,0
448,2.999,0
449,3.006,0
450,3.012,0
451,3.019,0
452,3.025,0
453,3.032,0
454,3.038,0
455,3.045,0
456,3.051,0
457,3.058,0
458,3.064,0
459,3.071,0
460,3.077,0
461,3.083,0
462,3.090,0
463,3.096,0
464,3.103,0
465,3.109,0
466,3.116,0
467,3.122,0
468,3.129,0
469,3.135,0
470,3.142,0
471,3.148,0
472,3.155,0
473,3.161,0
474,3.168,0
475,3.174,0
476,3.180,0
477,3.187,0
478,3.193,0
479,3.200,0
480,3.206,0
481,3.213,0
482,3.219,0
483,3.226,0
484,3.232,0
485,3.239,0
486,3.245,0
487,3.252,0
488,3.258,0
489,3.265,0
490,3.271,0
491,3.278,0
492,3.284,0
493,3.290,0
494,3.297,0
495,3.303,0
496,3.310,0
497,3.316,0
498,3.323,0
499,3.329,0
500,3.336,0
501,3.342,0
502,3.349,0
503,3.355,0
504,3.362,0
505,3.368,0
506,3.375,0
507,3.381,0
508,3.387,0
509,3.394,0
510,3.400,0
511,3.407,0
512,3.413,0
513,3.420,0
514,3.426,0
515,3.433,0
516,3.439,0
517,3.446,0
518,3.452,0
519,3.459,0
520,3.465,0
521,3.472,0
522,3.478,0
523,3.485,0
524,3.491,0
525,3.497,0
526,3.504,0
527,3.510,0
528,3.517,0
529,3.523,0
530,3.530,0
531,3.536,0
532,3.543,0
533,3.549,0
534,3.556,0
535,3.562,0
536,3.569,0
537,3.575,0
538,3.582,0
539,3.588,0
540,3.594,0
541,3.601,0
542,3.607,0
543,3.614,0
544,3.620,0
545,3.627,0
546,3.633,0
547,3.640,0
548,3.646,0
549,3.653,0
550,3.659,0
551,3.666,0
552,3.672,0
553,3.679,0
554,3.685,0
555,3.692,0
556,3.698,0
557,3.704,0
558,3.711,0
559,3.717,0
560,3.724,0
561,3.730,0
562,3.737,0
563,3.743,0
564,3.750,0
565,3.756,0
566,3.763,0
567,3.769,0
568,3.776,0
569,3.782,0
570,3.789,0
571,3.795,0
572,3.801,0
573,3.808,0
574,3.814,0
575,3.821,0
576,3.827,0
577,3.834,0
578,3.840,0
579,3.847,0
580,3.853,0
581,3.860,0
582,3.866,0
583,3.873,0
584,3.879,0
585,3.886,0
586,3.892,0
587,3.899,0
588,3.905,0
589,3.911,0
590,3.918,0
591,3.924,0
592,3.931,0
593,3.937,0
594,3.944,0
595,3.950,0
596,3.957,0
597,3.963,0
598,3.970,0
599,3.976,0
600,3.983,0
601,3.989,0
602,3.996,0
603,4.002,0
604,4.008,0
605,4.015,0
606,4.021,0
607,4.028,0
608,4.034,0
609,4.041,0
610,4.047,0
611,4.054,0
612,4.060,0
613,4.067,0
614,4.073,0
615,4.080,0
616,4.086,0
617,4.093,0
618,4.099,0
619,4.106,0
620,4.112,0
621,4.118,0
622,4.125,0
623,4.131,0
624,4.138,0
625,4.144,0
626,4.151,0
627,4.157,0
628,4.164,0
629,4.170,0
630,4.177,0
631,4.183,0
632,4.190,0
633,4.196,0
634,4.203,0
635,4.209,0
636,4.215,0
637,4.222,0
638,4.228,0
639,4.235,0
640,4.241,0
641,4.248,0
642,4.254,0
643,4.261,0
644,4.267,0
645,4.274,0
646,4.280,0
647,4.287,0
648,4.293,0
649,4.300,0
650,4.306,0
651,4.313,0
652,4.319,0
653,4.325,0
654,4.332,0
655,4.338,0
656,4.345,0
657,4.351,0
658,4.358,0
659,4.364,0
660,4.371,0
661,4.377,0
662,4.384,0
663,4.390,0
664,4.397,0
665,4.403,0
666,4.410,0
667,4.416,0.0536697570371531
668,4.422,0.315034987273335
669,4.429,0.837655934821277
670,4.435,2.18188496172734
671,4.442,4.03184467360726
672,4.448,5.22914105222545
673,4.455,5.40643405279113
674,4.461,5.27522072119315
675,4.468,5.14185925146231
676,4.474,4.97934207162229
677,4.481,4.85732782567564
678,4.487,4.75143725183213
679,4.494,4.60722557851255
680,4.500,4.48358548684181
681,4.507,4.40935257222693
682,4.513,4.30341145395677
683,4.520,4.16642763364894
684,4.526,4.06347706062256
685,4.532,3.97373543109552
686,4.539,3.86104663186683
687,4.545,3.77045417115775
688,4.552,3.70060177351969
689,4.558,3.59630334911583
690,4.565,3.48343764439384
691,4.571,3.39982873863435
692,4.578,3.30513375529506
693,4.584,3.19316100211065
694,4.591,3.11354510605695
695,4.597,3.05211677952816
696,4.604,2.96395045129855
697,4.610,2.88421661824932
698,4.617,2.82689923842185
699,4.623,2.75371090862452
700,4.629,2.66404509573746
701,4.636,2.6012773419023
702,4.642,2.54415371571035
703,4.649,2.46516962498984
704,4.655,2.39361556498771
705,4.662,2.35001257292613
706,4.668,2.29657868988004
707,4.675,2.23405523410704
708,4.681,2.18565894558429
709,4.688,2.13063291309855
710,4.694,2.06547272306835
711,4.701,2.01958680773616
712,4.707,1.97997682538038
713,4.714,1.92668615154314
714,4.720,1.88010946237999
715,4.727,1.84409655838787
716,4.733,1.79682067132265
717,4.739,1.74200524061464
718,4.746,1.70699480108452
719,4.752,1.67754424848651
720,4.759,1.62826343249729
721,4.765,1.57680920616187
722,4.772,1.54082157438307
723,4.778,1.50763073421255
724,4.785,1.47378281649551
725,4.791,1.44535157650173
726,4.798,1.41055173874934
727,4.804,1.3723485762688
728,4.811,1.35148215213114
729,4.817,1.33305870861517
730,4.824,1.29825044679167
731,4.830,1.26841238692264
732,4.836,1.24718372772728
733,4.843,1.21689076801835
734,4.849,1.18033029940412
735,4.856,1.15445155295645
736,4.862,1.13452862478303
737,4.869,1.10507807218502
738,4.875,1.0763351415602
739,4.882,1.06089381921691
740,4.888,1.04244510348761
741,4.895,1.02146916642553
742,4.901,1.006625953131
743,4.908,0.988590016886051
744,4.914,0.962980840713873
745,4.921,0.943891895580269
746,4.927,0.928534813948072
747,4.934,0.903961798522334
748,4.940,0.88026488649196
749,4.946,0.866238808095027
750,4.953,0.852044248275909
751,4.959,0.833865102822106
752,4.966,0.818390084194379
753,4.972,0.80316778769993
754,4.979,0.778594772274192
755,4.985,0.762024624402259
756,4.992,0.759581643780571
757,4.998,0.752286398199944
758,5.005,0.736171150167913
759,5.011,0.71937355237603
760,5.018,0.703569994975042
761,5.024,0.685163399601289
762,5.031,0.668947062715946
763,5.037,0.658922418095916
764,5.043,0.645856683805439
765,5.050,0.633616508483671
766,5.056,0.627778627204948
767,5.063,0.619649398584503
768,5.069,0.604469222445601
769,5.076,0.595312257149825
770,5.082,0.590914892030787
771,5.089,0.582482396850408
772,5.095,0.573578153687911
773,5.102,0.567799240906952
774,5.108,0.558280040553478
775,5.115,0.545618661676247
776,5.121,0.534212469394297
777,5.128,0.521450001663754
778,5.134,0.510229138946208
779,5.141,0.505840197898278
780,5.147,0.503254008067733
781,5.153,0.496767473313596
782,5.160,0.483457440960951
783,5.166,0.468117207470972
784,5.173,0.455700126655909
785,5.179,0.446450496577932
786,5.186,0.440199835814854
787,5.192,0.433940750980667
788,5.199,0.429054789737291
789,5.205,0.428094445630834
790,5.212,0.424910146751531
791,5.218,0.420125274361466
792,5.225,0.413453410042925
793,5.231,0.409199254132744
794,5.238,0.404431229884898
795,5.244,0.40187031226768
796,5.250,0.398450139397317
797,5.257,0.395560683006837
798,5.263,0.390565208839041
799,5.270,0.381206065836643
800,5.276,0.375528241908996
801,5.283,0.374500505233665
802,5.289,0.373329559349476
803,5.296,0.366034313768849
804,5.302,0.358621131192693
805,5.309,0.35438382342473
806,5.315,0.351561759603125
807,5.322,0.35046663035892
808,5.328,0.347509781399567
809,5.335,0.3409053096499
810,5.341,0.331124963092038
811,5.348,0.321690003449657
812,5.354,0.31612169244643
813,5.360,0.313678711824742
814,5.367,0.310073209389975
815,5.373,0.303552978351401
816,5.380,0.29757188786382
817,5.386,0.295937618068622
818,5.393,0.299374639081203
819,5.399,0.299315670583439
820,5.406,0.294640311117794
821,5.412,0.290217673785428
822,5.419,0.288431770710263
823,5.425,0.288179048576985
824,5.432,0.285660251315313
825,5.438,0.284329248080049
826,5.445,0.282155837733857
827,5.451,0.281465063902897
828,5.457,0.28027726987649
829,5.464,0.280108788454305
830,5.470,0.27913159620563
831,5.477,0.275054345788744
832,5.483,0.270614860314159
833,5.490,0.267329472581544
834,5.496,0.268230848190236
835,5.503,0.268357209256875
836,5.509,0.264220990342224
837,5.516,0.261070387747357
838,5.522,0.260093195498682
839,5.529,0.256580357846117
840,5.535,0.256302363499511
841,5.542,0.254137377224429
842,5.548,0.247869868319132
843,5.555,0.241198004000591
844,5.561,0.237845223699102
845,5.567,0.236379435326089
846,5.574,0.235166369086355
847,5.580,0.232639147753574
848,5.587,0.230288831914088
849,5.593,0.228983100892151
850,5.600,0.228334447416738
851,5.606,0.227483616234701
852,5.613,0.227761610581307
853,5.619,0.229016797176588
854,5.626,0.228991524963261
855,5.632,0.226523272128245
