FID RT (min),FID Signal,,MS RT (min),MS Signal
0.00082605,3.462424822,,0.096,0.962104537
0.001659383,3.454797644,,0.099,0.954661756
0.002492717,3.440539333,,0.103,0.95347323
0.00332605,3.425512578,,0.106,0.957147514
0.004159383,3.415465078,,0.11,0.957625824
0.004992717,3.408821222,,0.113,0.961840018
0.00582605,3.407216367,,0.117,0.960531915
0.006659383,3.4156496,,0.121,0.958810726
0.007492717,3.4291492,,0.124,0.960539162
0.00832605,3.442703367,,0.128,0.964872933
0.009159383,3.450526822,,0.131,0.966648475
0.009992717,3.457851244,,0.135,0.964423613
0.01082605,3.460750878,,0.139,0.962231362
0.011659383,3.4676491,,0.142,0.95974198
0.012492717,3.476067878,,0.146,0.962528493
0.01332605,3.485726722,,0.149,0.962329198
0.014159383,3.495905378,,0.153,0.960586268
0.014992717,3.510373489,,0.157,0.961481286
0.01582605,3.519559644,,0.16,0.963260451
0.016659383,3.519405244,,0.164,0.964075751
0.017492717,3.509970167,,0.167,0.958227334
0.01832605,3.496973056,,0.171,0.950349726
0.019159383,3.484994122,,0.174,0.94917207
0.019992717,3.474884811,,0.178,0.951574487
0.02082605,3.468046822,,0.182,0.949632262
0.021659383,3.4592407,,0.185,0.941816254
0.022492717,3.453337667,,0.189,0.935272114
0.02332605,3.451697567,,0.192,0.934221283
0.024159383,3.453217022,,0.196,0.934739451
0.024992717,3.451208611,,0.2,0.935076442
0.02582605,3.449261344,,0.203,0.93525762
0.026659383,3.4484664,,0.207,0.929844029
0.027492717,3.448438689,,0.21,0.918433455
0.02832605,3.447850611,,0.214,0.910537729
0.029159383,3.4492541,,0.218,0.912298776
0.029992717,3.450920756,,0.221,0.916067273
0.03082605,3.452253067,,0.225,0.915766518
0.031659383,3.4513456,,0.228,0.914335214
0.032492717,3.450177667,,0.232,0.917299282
0.03332605,3.448151233,,0.235,0.922321529
0.034159383,3.447818044,,0.239,0.924883382
0.034992717,3.448158033,,0.243,0.921430134
0.03582605,3.448751878,,0.246,0.91329163
0.036659383,3.447496211,,0.25,0.90936732
0.037492717,3.445938156,,0.253,0.910450763
0.03832605,3.4477217,,0.257,0.908834658
0.039159383,3.4509608,,0.261,0.904736417
0.039992717,3.453470467,,0.264,0.901138227
0.04082605,3.453979378,,0.268,0.897670485
0.041659383,3.452674011,,0.271,0.896576172
0.042492717,3.452351456,,0.275,0.898688704
0.04332605,3.450578689,,0.279,0.897612509
0.044159383,3.450312722,,0.282,0.890724131
0.044992717,3.450861533,,0.286,0.88629977
0.04582605,3.451471611,,0.289,0.886770833
0.046659383,3.451939167,,0.293,0.886691114
0.047492717,3.451416211,,0.296,0.885966403
0.04832605,3.451914533,,0.3,0.88814416
0.049159383,3.452885978,,0.304,0.890582812
0.049992717,3.452115378,,0.307,0.890173351
0.05082605,3.453469978,,0.311,0.887412202
0.051659383,3.453597144,,0.314,0.884806866
0.052492717,3.4553777,,0.318,0.883614716
0.05332605,3.455869289,,0.322,0.883063936
0.054159383,3.455512589,,0.325,0.882085576
0.054992717,3.456235167,,0.329,0.880936909
0.05582605,3.456354922,,0.332,0.876755327
0.056659383,3.458581278,,0.336,0.870983004
0.057492717,3.458695289,,0.34,0.867040576
0.05832605,3.458748111,,0.343,0.866417325
0.059159383,3.456641356,,0.347,0.866924623
0.059992717,3.455309767,,0.35,0.866620244
0.06082605,3.454823089,,0.354,0.86595351
0.061659383,3.455567789,,0.357,0.866377466
0.062492717,3.454944556,,0.361,0.867192766
0.06332605,3.453093489,,0.365,0.868566093
0.064159383,3.451265378,,0.368,0.870515566
0.064992717,3.450396122,,0.372,0.869403134
0.06582605,3.4519378,,0.375,0.864746866
0.066659383,3.454723911,,0.379,0.860525425
0.067492717,3.456679778,,0.383,0.857159142
0.06832605,3.455175944,,0.386,0.851241877
0.069159383,3.452346556,,0.39,0.846237748
0.069992717,3.451295022,,0.393,0.845197788
0.07082605,3.451580633,,0.397,0.846458785
0.071659383,3.453288822,,0.4,0.846900859
0.072492717,3.452731644,,0.404,0.846042076
0.07332605,3.452342378,,0.408,0.843193962
0.074159383,3.451958978,,0.411,0.841262607
0.074992717,3.453792333,,0.415,0.846408055
0.07582605,3.456887256,,0.418,0.856579374
0.076659383,3.457991533,,0.422,0.859605042
0.077492717,3.4575208,,0.426,0.854140721
0.07832605,3.457318244,,0.429,0.850995476
0.079159383,3.4560528,,0.433,0.851488279
0.079992717,3.457103956,,0.436,0.849263416
0.08082605,3.454684622,,0.44,0.847056672
0.081659383,3.453039611,,0.444,0.847871971
0.082492717,3.449960067,,0.447,0.847466133
0.08332605,3.450578422,,0.451,0.84545506
0.084159383,3.451365489,,0.454,0.844973128
0.084992717,3.450840856,,0.458,0.844632513
0.08582605,3.449261722,,0.461,0.843657777
0.086659383,3.449282078,,0.465,0.84262144
0.087492717,3.449707722,,0.469,0.839813185
0.08832605,3.450321867,,0.472,0.835229389
0.089159383,3.451011978,,0.476,0.833754602
0.089992717,3.451401633,,0.479,0.839784197
0.09082605,3.451653278,,0.483,0.845056469
0.091659383,3.451884467,,0.487,0.8410307
0.092492717,3.453004844,,0.49,0.835182282
0.09332605,3.453523678,,0.494,0.836805635
0.094159383,3.454717967,,0.497,0.840302365
0.094992717,3.456714367,,0.501,0.839095722
0.09582605,3.457420844,,0.505,0.836146148
0.096659383,3.458671111,,0.508,0.833037138
0.097492717,3.459054278,,0.512,0.827873572
0.09832605,3.458321067,,0.515,0.823137586
0.099159383,3.455046556,,0.519,0.822463605
0.099992717,3.453706756,,0.522,0.825703063
0.10082605,3.453699622,,0.526,0.831026065
0.101659383,3.455293522,,0.53,0.833515447
0.102492717,3.455170122,,0.533,0.829174428
0.10332605,3.455122322,,0.537,0.824438442
0.104159383,3.454748933,,0.54,0.825992947
0.104992717,3.455997233,,0.544,0.829312124
0.10582605,3.458641622,,0.548,0.828688872
0.106659383,3.4598004,,0.551,0.825913229
0.107492717,3.459530089,,0.555,0.825275483
0.10832605,3.4575482,,0.558,0.825492897
0.109159383,3.455286522,,0.562,0.824862398
0.109992717,3.453185422,,0.566,0.823351376
0.11082605,3.4525153,,0.569,0.820024953
0.111659383,3.451856556,,0.573,0.818060986
0.112492717,3.4498155,,0.576,0.81993074
0.11332605,3.4478787,,0.58,0.821434515
0.114159383,3.448449322,,0.583,0.81910457
0.114992717,3.450079178,,0.587,0.815734664
0.11582605,3.451171578,,0.591,0.813361235
0.116659383,3.450451589,,0.594,0.811991531
0.117492717,3.450184411,,0.598,0.81054211
0.11832605,3.450325933,,0.601,0.809784787
0.119159383,3.452083422,,0.605,0.811444375
0.119992717,3.453689978,,0.609,0.812603912
0.12082605,3.453005033,,0.612,0.808694097
0.121659383,3.4515399,,0.616,0.803490672
0.122492717,3.450943722,,0.619,0.800428768
0.12332605,3.453676611,,0.623,0.796790719
0.124159383,3.4533331,,0.627,0.794663692
0.124992717,3.453044789,,0.63,0.797776326
0.12582605,3.452827278,,0.634,0.803613873
0.126659383,3.4534161,,0.637,0.807690372
0.127492717,3.452415878,,0.641,0.807353381
0.12832605,3.4497701,,0.644,0.80596556
0.129159383,3.451541467,,0.648,0.808614378
0.129992717,3.454181233,,0.652,0.810600086
0.13082605,3.455931622,,0.655,0.806795354
0.131659383,3.453477678,,0.659,0.802461582
0.132492717,3.450814944,,0.662,0.802211557
0.13332605,3.450541689,,0.666,0.801109996
0.134159383,3.451891511,,0.67,0.796482717
0.134992717,3.451918711,,0.673,0.792217793
0.13582605,3.451130789,,0.677,0.793833898
0.136659383,3.451999944,,0.68,0.801283927
0.137492717,3.454999611,,0.684,0.807027261
0.13832605,3.457499167,,0.688,0.805382167
0.139159383,3.459440989,,0.691,0.800327308
0.139992717,3.460889278,,0.695,0.800493992
0.14082605,3.461277444,,0.698,0.807164956
0.141659383,3.460569011,,0.702,0.811390021
0.142492717,3.460559533,,0.705,0.809723186
0.14332605,3.459024656,,0.709,0.806523587
0.144159383,3.458354978,,0.713,0.803298623
0.144992717,3.457389411,,0.716,0.802932644
0.14582605,3.457433789,,0.72,0.809531138
0.146659383,3.455729422,,0.723,0.81376345
0.147492717,3.455392511,,0.727,0.806646788
0.14832605,3.456377678,,0.731,0.797635007
0.149159383,3.456793022,,0.734,0.795504357
0.149992717,3.454682689,,0.738,0.796272551
0.15082605,3.451785689,,0.741,0.793909993
0.151659383,3.452162733,,0.745,0.790514722
0.152492717,3.452257233,,0.748,0.787815174
0.15332605,3.452347522,,0.752,0.783133541
0.154159383,3.4526751,,0.756,0.782923375
0.154992717,3.4537047,,0.759,0.777585878
0.15582605,3.454548089,,0.763,0.76774068
0.156659383,3.454893656,,0.766,0.767258747
0.157492717,3.454979656,,0.77,0.77216504
0.15832605,3.458146944,,0.774,0.764051901
0.159159383,3.458845767,,0.777,0.746763921
0.159992717,3.458083489,,0.781,0.752913093
0.16082605,3.454106067,,0.784,0.764954166
0.161659383,3.451679411,,0.788,0.757235994
0.162492717,3.451502944,,0.792,0.750680984
0.16332605,3.454246633,,0.795,0.764939672
0.164159383,3.457230156,,0.799,0.793069328
0.164992717,3.459814178,,0.802,0.805566969
0.16582605,3.460024156,,0.806,0.780984773
0.166659383,3.456975889,,0.809,0.759475351
0.167492717,3.452157089,,0.813,0.771117833
0.16832605,3.4492842,,0.817,0.812252427
0.169159383,3.449194767,,0.82,0.825032705
0.169992717,3.452523411,,0.824,0.777401077
0.17082605,3.4563216,,0.827,0.718902408
0.171659383,3.460413756,,0.831,0.704647343
0.172492717,3.463256767,,0.835,0.687362987
0.17332605,3.462778833,,0.838,0.677945368
0.174159383,3.460643556,,0.842,0.753210225
0.174992717,3.4575902,,0.845,0.851220136
0.17582605,3.458042567,,0.849,0.891847433
0.176659383,3.460454222,,0.853,0.858325927
0.177492717,3.461436244,,0.856,0.816260079
0.17832605,3.458717378,,0.86,0.822952785
0.179159383,3.456311978,,0.863,0.820427167
0.179992717,3.455757978,,0.867,0.793167164
0.18082605,3.457839067,,0.87,0.809556503
0.181659383,3.458437767,,0.874,0.887042599
0.182492717,3.457827211,,0.878,0.951469404
0.18332605,3.454459678,,0.881,0.970181441
0.184159383,3.4522258,,0.885,0.940374079
0.184992717,3.451987844,,0.888,0.850604132
0.18582605,3.453961822,,0.892,0.765725983
0.186659383,3.454624467,,0.896,0.750235286
0.187492717,3.454212656,,0.899,0.755938762
0.18832605,3.454621022,,0.903,0.730871009
0.189159383,3.457431867,,0.906,0.726580721
0.189992717,3.4618246,,0.91,0.816035419
0.19082605,3.461844522,,0.914,0.923894152
0.191659383,3.459209211,,0.917,0.983363934
0.192492717,3.455487833,,0.921,1.028386602
0.19332605,3.455164556,,0.924,1.083055174
0.194159383,3.454061378,,0.928,1.07524279
0.194992717,3.454064433,,0.931,0.942508353
0.19582605,3.4569687,,0.935,0.739574788
0.196659383,3.459687667,,0.939,0.602789217
0.197492717,3.460395056,,0.942,0.568423423
0.19832605,3.458760522,,0.946,0.555791711
0.199159383,3.458243911,,0.949,0.543373788
0.199992717,3.458704933,,0.953,0.575058152
0.20082605,3.459561689,,0.957,0.643829599
0.201659383,3.460885911,,0.96,0.690116888
0.202492717,3.459253678,,0.964,0.737103524
0.20332605,3.4568196,,0.967,0.812564053
0.204159383,3.454149244,,0.971,0.849274287
0.204992717,3.454884956,,0.975,0.795736264
0.20582605,3.456645067,,0.978,0.700473008
0.206659383,3.454454056,,0.982,0.639046506
0.207492717,3.452214267,,0.985,0.665415115
0.20832605,3.451771533,,0.989,0.756196034
0.209159383,3.4534027,,0.992,0.816274573
0.209992717,3.454274644,,0.996,0.816687659
0.21082605,3.454040422,,1,0.814720068
0.211659383,3.454824133,,1.003,0.823166575
0.212492717,3.453392656,,1.007,0.81916617
0.21332605,3.451622356,,1.01,0.808723085
0.214159383,3.452746767,,1.014,0.805534357
0.214992717,3.455255489,,1.018,0.797395853
0.21582605,3.456897789,,1.021,0.785362027
0.216659383,3.456795878,,1.025,0.783470531
0.217492717,3.457155022,,1.028,0.807650513
0.21832605,3.456609167,,1.032,0.86448597
0.219159383,3.456028711,,1.035,0.905254586
0.219992717,3.454194556,,1.039,0.887926747
0.22082605,3.452182489,,1.043,0.852187625
0.221659383,3.452112622,,1.046,0.82942083
0.222492717,3.454178111,,1.05,0.802943515
0.22332605,3.454972167,,1.053,0.768030564
0.224159383,3.454651378,,1.057,0.729896273
0.224992717,3.454518556,,1.061,0.716119518
0.22582605,3.455790967,,1.064,0.743687523
0.226659383,3.455592,,1.068,0.77417249
0.227492717,3.456131611,,1.071,0.775810336
0.22832605,3.456190333,,1.075,0.778629462
0.229159383,3.455709089,,1.079,0.790605311
0.229992717,3.453541489,,1.082,0.779662175
0.23082605,3.450745933,,1.086,0.741709062
0.231659383,3.450077933,,1.089,0.72552989
0.232492717,3.452511378,,1.093,0.743723758
0.23332605,3.457122622,,1.096,0.755322757
0.234159383,3.4588988,,1.1,0.756993216
0.234992717,3.457401578,,1.104,0.759268809
0.23582605,3.455165011,,1.107,0.756522154
0.236659383,3.454882444,,1.111,0.755272028
0.237492717,3.454916478,,1.114,0.7638671
0.23832605,3.456204633,,1.118,0.761301623
0.239159383,3.457172944,,1.122,0.760797949
0.239992717,3.458832211,,1.125,0.772172287
0.24082605,3.461217711,,1.129,0.774831977
0.241659383,3.463063233,,1.132,0.773085423
0.242492717,3.463531733,,1.136,0.777915622
0.24332605,3.461165933,,1.14,0.777922869
0.244159383,3.459898933,,1.143,0.766900015
0.244992717,3.457782989,,1.147,0.758895583
0.24582605,3.456150522,,1.15,0.763859853
0.246659383,3.452590678,,1.154,0.768059553
0.247492717,3.451518056,,1.157,0.772944105
0.24832605,3.450671989,,1.161,0.764428751
0.249159383,3.451564833,,1.165,0.750981739
0.249992717,3.453231511,,1.168,0.746166034
0.25082605,3.455027211,,1.172,0.746553755
0.251659383,3.456165767,,1.175,0.75105421
0.252492717,3.457438411,,1.179,0.763569968
0.25332605,3.459442956,,1.183,0.777002486
0.254159383,3.460095533,,1.186,0.779720152
0.254992717,3.457444578,,1.19,0.772353465
0.25582605,3.455335244,,1.193,0.762189394
0.256659383,3.455915789,,1.197,0.754087125
0.257492717,3.458892444,,1.201,0.75357258
0.25832605,3.460751044,,1.204,0.76332719
0.259159383,3.458897056,,1.208,0.775418993
0.259992717,3.456186844,,1.211,0.781564542
0.26082605,3.454478567,,1.215,0.782166052
0.261659383,3.455650622,,1.218,0.77913676
0.262492717,3.456916589,,1.222,0.771983863
0.26332605,3.457868122,,1.226,0.765236803
0.264159383,3.458950144,,1.229,0.76611008
0.264992717,3.459077378,,1.233,0.769925683
0.26582605,3.456304589,,1.236,0.767005098
0.266659383,3.4550207,,1.24,0.759757989
0.267492717,3.4531115,,1.244,0.758710781
0.26832605,3.450823011,,1.247,0.76774068
0.269159383,3.448415633,,1.251,0.774052912
0.269992717,3.447829933,,1.254,0.767842139
0.27082605,3.448859189,,1.258,0.755695984
0.271659383,3.450903567,,1.262,0.745267393
0.272492717,3.453914589,,1.265,0.743176602
0.27332605,3.456493244,,1.269,0.753989289
0.274159383,3.4571791,,1.272,0.766736955
0.274992717,3.4537979,,1.276,0.771755579
0.27582605,3.448924289,,1.279,0.771780944
0.276659383,3.446737944,,1.283,0.768135647
0.277492717,3.4490446,,1.287,0.761754567
0.27832605,3.454397233,,1.29,0.758221601
0.279159383,3.454886244,,1.294,0.756913498
0.279992717,3.452809022,,1.297,0.753652299
0.28082605,3.450688611,,1.301,0.75253262
0.281659383,3.452571511,,1.305,0.757475149
0.282492717,3.456594578,,1.308,0.762924975
0.28332605,3.4595218,,1.312,0.761508166
0.284159383,3.458758389,,1.315,0.75608008
0.284992717,3.456379867,,1.319,0.755406099
0.28582605,3.4547822,,1.323,0.763671428
0.286659383,3.455035622,,1.326,0.773049188
0.287492717,3.453974844,,1.33,0.771650496
0.28832605,3.452760933,,1.333,0.763294578
0.289159383,3.452331811,,1.337,0.7554677
0.289992717,3.454258311,,1.34,0.745158686
0.29082605,3.457423656,,1.344,0.735943986
0.291659383,3.458459778,,1.348,0.735585254
0.292492717,3.457871822,,1.351,0.741466284
0.29332605,3.455282044,,1.355,0.747974188
0.294159383,3.453289667,,1.358,0.753521851
0.294992717,3.452446111,,1.362,0.75569236
0.29582605,3.455921978,,1.366,0.756264882
0.296659383,3.458378656,,1.369,0.758518733
0.297492717,3.460465789,,1.373,0.756764932
0.29832605,3.458950733,,1.376,0.747803881
0.299159383,3.458280867,,1.38,0.742118524
0.299992717,3.456722278,,1.383,0.745597136
0.30082605,3.453318533,,1.387,0.752057935
0.301659383,3.452034122,,1.391,0.755848173
0.302492717,3.451706011,,1.394,0.754985767
0.30332605,3.453508267,,1.398,0.750691854
0.304159383,3.456000344,,1.401,0.748285814
0.304992717,3.457417378,,1.405,0.750822302
0.30582605,3.457842933,,1.409,0.753543592
0.306659383,3.455923056,,1.412,0.753913195
0.307492717,3.456417967,,1.416,0.757301218
0.30832605,3.4561313,,1.419,0.76278728
0.309159383,3.456533678,,1.423,0.763446767
0.309992717,3.455769511,,1.427,0.76300107
0.31082605,3.457069911,,1.43,0.768316825
0.311659383,3.456895644,,1.434,0.773784769
0.312492717,3.456024967,,1.437,0.770690253
0.31332605,3.456016044,,1.441,0.765302027
0.314159383,3.4570571,,1.444,0.764309173
0.314992717,3.459199067,,1.448,0.760464582
0.31582605,3.458176911,,1.452,0.752409419
0.316659383,3.458644967,,1.455,0.748532216
0.317492717,3.458813689,,1.459,0.747937953
0.31832605,3.459340033,,1.462,0.744401363
0.319159383,3.458394411,,1.466,0.742111277
0.319992717,3.457409433,,1.47,0.744633271
0.32082605,3.458596333,,1.473,0.745242028
0.321659383,3.460129544,,1.477,0.743383144
0.322492717,3.458783956,,1.48,0.745796432
0.32332605,3.455652011,,1.484,0.749039513
0.324159383,3.453640411,,1.488,0.750282393
0.324992717,3.456662678,,1.491,0.753971172
0.32582605,3.459485311,,1.495,0.756540272
0.326659383,3.458390433,,1.498,0.753206601
0.327492717,3.455798833,,1.502,0.751489036
0.32832605,3.454293178,,1.505,0.75629387
0.329159383,3.454978811,,1.509,0.759551446
0.329992717,3.4568615,,1.513,0.754554564
0.33082605,3.4579354,,1.516,0.746137046
0.331659383,3.458271878,,1.52,0.740506042
0.332492717,3.455809,,1.523,0.737944188
0.33332605,3.453663956,,1.527,0.738658029
0.334159383,3.451100811,,1.531,0.742520738
0.334992717,3.451022133,,1.534,0.748470615
0.33582605,3.451284144,,1.538,0.753445756
0.336659383,3.451614567,,1.541,0.755134333
0.337492717,3.451995833,,1.545,0.755880785
0.33832605,3.453068456,,1.549,0.75793534
0.339159383,3.4536308,,1.552,0.757931717
0.339992717,3.4512938,,1.556,0.751398448
0.34082605,3.449546567,,1.559,0.739306645
0.341659383,3.451074511,,1.563,0.732215348
0.342492717,3.453883344,,1.566,0.739034878
0.34332605,3.454650733,,1.57,0.750405594
0.344159383,3.455304044,,1.574,0.752387678
0.344992717,3.454303789,,1.577,0.747202371
0.34582605,3.454587533,,1.581,0.747445149
0.346659383,3.455426422,,1.584,0.753768252
0.347492717,3.457110911,,1.588,0.757779528
0.34832605,3.4565505,,1.592,0.756438812
0.349159383,3.454842978,,1.595,0.753181237
0.349992717,3.455813278,,1.599,0.750956374
0.35082605,3.459276289,,1.602,0.74985119
0.351659383,3.460680989,,1.606,0.749789589
0.352492717,3.459794144,,1.61,0.751898498
0.35332605,3.460485333,,1.613,0.754358892
0.354159383,3.461034411,,1.617,0.753311685
0.354992717,3.4615362,,1.62,0.749532317
0.35582605,3.460521289,,1.624,0.746963216
0.356659383,3.458329544,,1.627,0.747347313
0.357492717,3.457316244,,1.631,0.751597743
0.35832605,3.456444533,,1.635,0.760566041
0.359159383,3.456449833,,1.638,0.770255427
0.359992717,3.456115078,,1.642,0.769639423
0.36082605,3.457669344,,1.645,0.758040424
0.361659383,3.461703167,,1.649,0.748655417
0.362492717,3.463898667,,1.653,0.746763921
0.36332605,3.460551933,,1.656,0.751184658
0.364159383,3.4579454,,1.66,0.760591406
0.364992717,3.453939733,,1.663,0.766320246
0.36582605,3.454916056,,1.667,0.760058744
0.366659383,3.456290656,,1.671,0.74859744
0.367492717,3.4585986,,1.674,0.748003177
0.36832605,3.457629511,,1.678,0.755677866
0.369159383,3.4545979,,1.681,0.754195832
0.369992717,3.452482922,,1.685,0.744770966
0.37082605,3.451329267,,1.688,0.744760095
0.371659383,3.453311367,,1.692,0.753721146
0.372492717,3.455561622,,1.696,0.757685315
0.37332605,3.457328811,,1.699,0.755688736
0.374159383,3.456050522,,1.703,0.751398448
0.374992717,3.456707267,,1.706,0.744934026
0.37582605,3.456962778,,1.71,0.746568249
0.376659383,3.456288322,,1.714,0.760692866
0.377492717,3.452530433,,1.717,0.771309881
0.37832605,3.450308733,,1.721,0.768469014
0.379159383,3.450929844,,1.724,0.762504643
0.379992717,3.452617178,,1.728,0.762109676
0.38082605,3.452653956,,1.731,0.764378021
0.381659383,3.450852511,,1.735,0.764443245
0.382492717,3.450908856,,1.739,0.760971879
0.38332605,3.452933856,,1.742,0.752681186
0.384159383,3.456361644,,1.746,0.741759792
