#"+EI TIC Scan MBPR042_01_GS1.d "
#Point,X(Minutes),Y(Counts)
0,0.096,1.24913806074649
1,0.099,1.2460469499367
2,0.103,1.23702324329437
3,0.106,1.22921048727857
4,0.110,1.22652833786457
5,0.113,1.2276489983128
6,0.117,1.22438792952034
7,0.121,1.21936885784465
8,0.124,1.21956537176211
9,0.128,1.22079756713646
10,0.131,1.21721782712649
11,0.135,1.21095062651558
12,0.139,1.20708408240986
13,0.142,1.20874117274089
14,0.146,1.21071693428941
15,0.149,1.21144987808967
16,0.153,1.21308572367286
17,0.157,1.21440289803854
18,0.160,1.20984058844127
19,0.164,1.20424790857408
20,0.167,1.20345654171728
21,0.171,1.20437006587412
22,0.174,1.20117804251212
23,0.178,1.19544196059705
24,0.182,1.19202155619584
25,0.185,1.19077342726061
26,0.189,1.18826654701625
27,0.192,1.18959434375585
28,0.196,1.19611648134076
29,0.200,1.19921290333751
30,0.203,1.19815066594583
31,0.207,1.19810817645017
32,0.210,1.20212874497768
33,0.214,1.20485338388734
34,0.217,1.2027129755431
35,0.221,1.19656262104527
36,0.225,1.18477709718458
37,0.228,1.17443090498961
38,0.232,1.17348020252406
39,0.235,1.17558343255958
40,0.239,1.17716085508623
41,0.243,1.18449560427578
42,0.246,1.19275981118305
43,0.250,1.18828248057712
44,0.253,1.17688998455135
45,0.257,1.17394227578944
46,0.261,1.17782475345603
47,0.264,1.17842491758233
48,0.268,1.1764757119686
49,0.271,1.18049628049611
50,0.275,1.19140545850866
51,0.278,1.19803381983275
52,0.282,1.19381673738778
53,0.286,1.18512763552383
54,0.289,1.18219586032279
55,0.293,1.18751235846815
56,0.296,1.18967932274718
57,0.300,1.1817231646835
58,0.304,1.16788752265686
59,0.307,1.16142911931544
60,0.311,1.16441400638607
61,0.314,1.172465765815
62,0.318,1.18072466153532
63,0.322,1.18246141967071
64,0.325,1.17264634617159
65,0.329,1.15797684779248
66,0.332,1.15180524854682
67,0.336,1.15818398408386
68,0.339,1.17350675845885
69,0.343,1.18315718516226
70,0.347,1.17591803733796
71,0.350,1.15870448040578
72,0.354,1.14638783784925
73,0.357,1.14773687933668
74,0.361,1.15783875693156
75,0.365,1.16519475086895
76,0.368,1.16455209724698
77,0.372,1.15829020782303
78,0.375,1.15261786015145
79,0.379,1.15097670338131
80,0.383,1.15083861252039
81,0.386,1.15205487433386
82,0.390,1.15516722989149
83,0.393,1.15744041790968
84,0.397,1.15345702769088
85,0.400,1.14291432157845
86,0.404,1.13576015274549
87,0.408,1.14004096943396
88,0.411,1.14804492818027
89,0.415,1.15311711172554
90,0.418,1.15481138036527
91,0.422,1.15088110201606
92,0.426,1.1420273533564
93,0.429,1.13909557815536
94,0.433,1.14771563458885
95,0.436,1.15408374775197
96,0.440,1.14863446993265
97,0.444,1.1411722522561
98,0.447,1.13966918634687
99,0.451,1.14142187804314
100,0.454,1.14365788775263
101,0.458,1.14924525643287
102,0.461,1.15424839454768
103,0.465,1.15348889481263
104,0.469,1.14948957103296
105,0.472,1.14925056761983
106,0.476,1.14883098385011
107,0.479,1.14157590246494
108,0.483,1.13696048099809
109,0.487,1.14124129768656
110,0.490,1.14581422965774
111,0.494,1.14257971680008
112,0.497,1.13635500568483
113,0.501,1.13524496761052
114,0.505,1.13875035100307
115,0.508,1.14277623071754
116,0.512,1.14405091558755
117,0.515,1.14006221418179
118,0.519,1.13327982843591
119,0.522,1.13257344057045
120,0.526,1.13620098126304
121,0.530,1.14138469973444
122,0.533,1.14561771574028
123,0.537,1.14714202639734
124,0.540,1.14216544421732
125,0.544,1.13503252013219
126,0.548,1.13218572392248
127,0.551,1.13228663647469
128,0.555,1.13416148547101
129,0.558,1.13662056503275
130,0.562,1.13487318452343
131,0.565,1.1293495500867
132,0.569,1.13030025255225
133,0.573,1.13491036283214
134,0.576,1.13240879377474
135,0.580,1.12981162335208
136,0.583,1.13744911019826
137,0.587,1.14409340508322
138,0.591,1.13544679271494
139,0.594,1.12657179930745
140,0.598,1.13323733894025
141,0.601,1.14119880819089
142,0.605,1.13602571209341
143,0.609,1.12819171132977
144,0.612,1.12652930981179
145,0.616,1.12672051254229
146,0.619,1.12529180325048
147,0.623,1.12552549547665
148,0.626,1.12783055061659
149,0.630,1.13666305452842
150,0.634,1.15139628715102
151,0.637,1.15548058992203
152,0.641,1.14292494395237
153,0.644,1.13212198967898
154,0.648,1.13146340249614
155,0.652,1.13126688857868
156,0.655,1.13264779718786
157,0.659,1.13751815562872
158,0.662,1.14188926249548
159,0.666,1.14228229033041
160,0.670,1.13765093530268
161,0.673,1.12825544557327
162,0.677,1.12068700415754
163,0.680,1.12070824890538
164,0.684,1.12348068849766
165,0.687,1.12423487704576
166,0.691,1.12415520924138
167,0.695,1.12293363624095
168,0.698,1.11871655379598
169,0.702,1.1164539881517
170,0.705,1.12306641591491
171,0.709,1.13161211573098
172,0.713,1.13126688857868
173,0.716,1.12558922972015
174,0.720,1.12325761864541
175,0.723,1.11955041014845
176,0.727,1.11109500051067
177,0.731,1.10314415363394
178,0.734,1.10611841833065
179,0.738,1.11841912732631
180,0.741,1.12577512126369
181,0.745,1.11975754643982
182,0.748,1.10920421795348
183,0.752,1.10546514233476
184,0.756,1.11151989546734
185,0.759,1.1190458473874
186,0.763,1.12236002804944
187,0.766,1.11997530510512
188,0.770,1.11445167066838
189,0.774,1.11300171662874
190,0.777,1.11702228515625
191,0.781,1.12515902357652
192,0.784,1.13234505953124
193,0.788,1.13016747287829
194,0.792,1.12054360210967
195,0.795,1.11823854696972
196,0.799,1.12569014227236
197,0.802,1.12745876752951
198,0.806,1.1211650109838
199,0.809,1.11731971162592
200,0.813,1.11814294560447
201,0.817,1.11704884109104
202,0.820,1.11201914704143
203,0.824,1.10877401180985
204,0.827,1.11227939520239
205,0.831,1.1155085968731
206,0.835,1.11422328962917
207,0.838,1.11344254514628
208,0.842,1.11999654985295
209,0.845,1.12444201333713
210,0.849,1.11973630169199
211,0.853,1.11269897897211
212,0.856,1.11115873475417
213,0.860,1.1126618006634
214,0.863,1.11611407218636
215,0.867,1.1205648468575
216,0.870,1.1194282528484
217,0.874,1.11657083426478
218,0.878,1.11833945952193
219,0.881,1.12438359028059
220,0.885,1.12614690435078
221,0.888,1.12075073840104
222,0.892,1.11420735606829
223,0.896,1.1114614724108
224,0.899,1.11090910896713
225,0.903,1.11159425208476
226,0.906,1.11439324761184
227,0.910,1.11881746634819
228,0.913,1.1221741365059
229,0.917,1.12492002016339
230,0.921,1.12150492694914
231,0.924,1.11649116646041
232,0.928,1.11411706589
233,0.931,1.10906612709256
234,0.935,1.10129054938546
235,0.939,1.09886864813243
236,0.942,1.10257585662939
237,0.946,1.1103248784017
238,0.949,1.11668236919091
239,0.953,1.11542361788177
240,0.957,1.10769584085729
241,0.960,1.10233685321627
242,0.964,1.10544920877389
243,0.967,1.1124068636894
244,0.971,1.1150359012338
245,0.974,1.11267773422427
246,0.978,1.10746214863112
247,0.982,1.10459941886055
248,0.985,1.10892803623164
249,0.989,1.11488718799897
250,0.992,1.11215723790235
251,0.996,1.10142332905942
252,1.000,1.0991660746021
253,1.003,1.1079507778313
254,1.007,1.1153173941426
255,1.010,1.11265648947644
256,1.014,1.10703194248749
257,1.018,1.10236872033802
258,1.021,1.09913420748035
259,1.025,1.10010615469374
260,1.028,1.10439228256917
261,1.032,1.10610248476977
262,1.035,1.10455692936488
263,1.039,1.1011577697115
264,1.043,1.09609620854014
265,1.046,1.0939186218872
266,1.050,1.10100374528971
267,1.053,1.1118066995631
268,1.057,1.11377183873771
269,1.061,1.10527393960426
270,1.064,1.09934665495869
271,1.068,1.10415327915604
272,1.071,1.1137081044942
273,1.075,1.11614062812115
274,1.079,1.11170578701089
275,1.082,1.11004338549291
276,1.086,1.11128089205421
277,1.089,1.11227408401544
278,1.093,1.11103657745413
279,1.096,1.10995840650157
280,1.100,1.10860405382718
281,1.104,1.10705318723533
282,1.107,1.10581568067402
283,1.111,1.10557667726089
284,1.114,1.10723907877887
285,1.118,1.1070691207962
286,1.122,1.1064052224264
287,1.125,1.10602812815236
288,1.129,1.10663360346561
289,1.132,1.10518364942597
290,1.136,1.09861902234539
291,1.140,1.09480559010925
292,1.143,1.09734964866233
293,1.147,1.09993088552411
294,1.150,1.10273519223815
295,1.154,1.1071965892832
296,1.157,1.11255557692423
297,1.161,1.11214130434148
298,1.165,1.10857218670543
299,1.168,1.1035584262167
300,1.172,1.10103561241146
301,1.175,1.10412672322125
302,1.179,1.1068779180657
303,1.183,1.10292108378169
304,1.186,1.09605903023144
305,1.190,1.09371679678278
306,1.193,1.09838533011922
307,1.197,1.10737716963979
308,1.200,1.11101533270629
309,1.204,1.10589003729144
310,1.208,1.10135959481592
311,1.211,1.10070100763308
312,1.215,1.09985652890669
313,1.218,1.0972381137362
314,1.222,1.09871462371064
315,1.226,1.10424888052129
316,1.229,1.10656455803515
317,1.233,1.10217220642056
318,1.236,1.1019491365683
319,1.240,1.10341502416882
320,1.244,1.10485966702151
321,1.247,1.10667078177432
322,1.251,1.10676107195261
323,1.254,1.10359029333845
324,1.258,1.09920856409777
325,1.261,1.09958565837181
326,1.265,1.10139146193767
327,1.269,1.09697255438828
328,1.272,1.0954376213573
329,1.276,1.10146050736813
330,1.279,1.10304855226869
331,1.283,1.09952723531527
332,1.287,1.09665919435773
333,1.290,1.09110900398621
334,1.294,1.08743366261099
335,1.297,1.09021141339024
336,1.301,1.09721686898837
337,1.305,1.10013802181549
338,1.308,1.09478434536142
339,1.312,1.08932444516818
340,1.315,1.08957938214219
341,1.319,1.09446036295696
342,1.322,1.09753022901891
343,1.326,1.09785952261033
344,1.330,1.09942632276306
345,1.333,1.10238465389889
346,1.337,1.09924043121952
347,1.340,1.09383364289587
348,1.344,1.09236775529535
349,1.348,1.09890051525418
350,1.351,1.10704256486141
351,1.355,1.10765866254858
352,1.358,1.09823661688438
353,1.362,1.08995116522927
354,1.366,1.09142236401675
355,1.369,1.0959103169966
356,1.373,1.09743993884062
357,1.376,1.09873586845847
358,1.380,1.09798699109734
359,1.383,1.09503397114846
360,1.387,1.09261206989543
361,1.391,1.09202252814305
362,1.394,1.0913267626515
363,1.398,1.09361057304361
364,1.401,1.09796043516254
365,1.405,1.1020128708118
366,1.409,1.10472688734755
367,1.412,1.10649551260469
368,1.416,1.1039408316777
369,1.419,1.09939976682827
370,1.423,1.09889520406722
371,1.427,1.09794981278863
372,1.430,1.09178352472992
373,1.434,1.08458155521433
374,1.437,1.08685474323253
375,1.441,1.09899611661943
376,1.444,1.11008056380162
377,1.448,1.11106844457588
378,1.452,1.10827476023576
379,1.455,1.10807293513134
380,1.459,1.10746745981808
381,1.462,1.10477999921713
382,1.466,1.10284141597731
383,1.470,1.10040358116341
384,1.473,1.10118432564629
385,1.477,1.10570414574789
386,1.480,1.10770646323121
387,1.484,1.1036221604602
388,1.488,1.09789138973208
389,1.491,1.09517206200938
390,1.495,1.09441787346129
391,1.498,1.094837457231
392,1.502,1.09932541021085
393,1.505,1.10305917464261
394,1.509,1.1020394267466
395,1.513,1.10251743357285
396,1.516,1.10635742174378
397,1.520,1.10587941491752
398,1.523,1.10133835006809
399,1.527,1.10123743751588
400,1.531,1.10427012526912
401,1.534,1.10231029728147
402,1.538,1.09655828180553
403,1.541,1.09359463948274
404,1.545,1.09404077918724
405,1.548,1.09572973664001
406,1.552,1.09593156174443
407,1.556,1.09132145146454
408,1.559,1.0858243729626
409,1.563,1.08707781308478
410,1.566,1.09156576606463
411,1.570,1.09235713292143
412,1.574,1.09203846170393
413,1.577,1.09202783933001
414,1.581,1.09032294831636
415,1.584,1.08948378077693
416,1.588,1.09070004259041
417,1.592,1.09111962636012
418,1.595,1.0910452697427
419,1.599,1.09436476159171
420,1.602,1.09867744540193
421,1.606,1.10114714733758
422,1.609,1.09898018305856
423,1.613,1.09643612450548
424,1.617,1.09744525002758
425,1.620,1.10155610873338
426,1.624,1.10290515022082
427,1.627,1.10705849842229
428,1.631,1.11093566490192
429,1.635,1.10444539443875
430,1.638,1.09282982856073
431,1.642,1.091135559921
432,1.645,1.09604309667056
433,1.649,1.09863495590626
434,1.653,1.10385585268637
435,1.656,1.10931044169265
436,1.660,1.10826413786184
437,1.663,1.10331942280357
438,1.667,1.10142864024638
439,1.670,1.09759396326241
440,1.674,1.09176759116905
441,1.678,1.08714685851524
442,1.681,1.08524545358413
443,1.685,1.08665291812811
444,1.688,1.09106120330358
445,1.692,1.09349372693053
446,1.696,1.0919906610213
447,1.699,1.09254302446497
448,1.703,1.10056291677216
449,1.706,1.10465784191709
450,1.710,1.09955910243702
451,1.714,1.09371679678278
452,1.717,1.09210750713438
453,1.721,1.09185257016038
454,1.724,1.09502334877455
455,1.728,1.09975561635448
456,1.731,1.1018216680813
457,1.735,1.10098781172883
458,1.739,1.10108341309408
459,1.742,1.10036109166774
460,1.746,1.09644143569244
461,1.749,1.08830469727217
462,1.753,1.08407168126632
463,1.757,1.08544727868855
464,1.760,1.08810818335471
465,1.764,1.08870834748101
466,1.767,1.09140643045588
467,1.771,1.09842250842792
468,1.775,1.10726563471366
469,1.778,1.1131982305462
470,1.782,1.11258213285902
471,1.785,1.10407361135166
472,1.789,1.09801885821909
473,1.792,1.10009553231982
474,1.796,1.09690350895782
475,1.800,1.08750270804145
476,1.803,1.08627582385406
477,1.807,1.09266518176502
478,1.810,1.09491181384842
479,1.814,1.09424791547862
480,1.818,1.0961918099054
481,1.821,1.09758865207546
482,1.825,1.09521986269201
483,1.828,1.09060975241212
484,1.832,1.08761424296758
485,1.836,1.08692378866298
486,1.839,1.08845872169396
487,1.843,1.09346185980878
488,1.846,1.09685039708824
489,1.850,1.09783296667554
490,1.853,1.10060540626783
491,1.857,1.10433917069958
492,1.861,1.09932541021085
493,1.864,1.09313256621736
494,1.868,1.09826848400613
495,1.871,1.107350613705
496,1.875,1.10742497032242
497,1.879,1.1025493006946
498,1.882,1.09821537213655
499,1.886,1.09169854573859
500,1.889,1.08484180337529
501,1.893,1.08355649613136
502,1.896,1.08883050478105
503,1.900,1.09323347876957
504,1.904,1.09260675870847
505,1.907,1.08640860352802
506,1.911,1.08176131493942
507,1.914,1.08599964213222
508,1.918,1.09323347876957
509,1.922,1.0939823561307
510,1.925,1.09162418912117
511,1.929,1.09398766731766
512,1.932,1.098029480593
513,1.936,1.09547479966601
514,1.940,1.09007332252932
515,1.943,1.09310069909561
516,1.947,1.10126399345067
517,1.950,1.10132241650721
518,1.954,1.09859246641059
519,1.957,1.09909702917164
520,1.961,1.10090814392446
521,1.965,1.10317602075569
522,1.968,1.10186415757697
523,1.972,1.09510301657892
524,1.975,1.09185257016038
525,1.979,1.09661139367511
526,1.983,1.09817288264088
527,1.986,1.08892079495934
528,1.990,1.08061940974336
529,1.993,1.08442221960558
530,1.997,1.091263028408
531,2.001,1.0896802946944
532,2.004,1.08505956204059
533,2.008,1.0877895121372
534,2.011,1.09533670880509
535,2.015,1.09827379519309
536,2.018,1.09509770539196
537,2.022,1.09210219594743
538,2.026,1.0896537387596
539,2.029,1.08749208566753
540,2.033,1.08820378471996
541,2.036,1.09168792336467
542,2.040,1.09407264630899
543,2.044,1.09513488370067
544,2.047,1.09163481149509
545,2.051,1.08666354050202
546,2.054,1.08694503341082
547,2.058,1.0880072708025
548,2.062,1.08667416287594
549,2.065,1.08676445305423
550,2.069,1.09315381096519
551,2.072,1.09805603652779
552,2.076,1.09801354703213
553,2.079,1.09892707118897
554,2.083,1.10003179807632
555,2.087,1.09478434536142
556,2.090,1.09031232594244
557,2.094,1.09388675476545
558,2.097,1.09682384115345
559,2.101,1.09275547194331
560,2.105,1.08929788923339
561,2.108,1.09295198586077
562,2.112,1.09926167596735
563,2.115,1.09954316887615
564,2.119,1.09434351684387
565,2.123,1.09102402499487
566,2.126,1.09707877812745
567,2.130,1.10663891465257
568,2.133,1.10923077388827
569,2.137,1.10249087763806
570,2.140,1.09577753732264
571,2.144,1.09525172981376
572,2.148,1.09550666678776
573,2.151,1.091008091434
574,2.155,1.08881988240713
575,2.158,1.08906419700722
576,2.162,1.0881347392895
577,2.166,1.0884162321983
578,2.169,1.0929732306086
579,2.173,1.0942638490395
580,2.176,1.08829938608521
581,2.180,1.08207467496996
582,2.184,1.08436379654904
583,2.187,1.09024859169894
584,2.191,1.09341405912615
585,2.194,1.09225622036922
586,2.198,1.09089124532091
587,2.201,1.08973340656398
588,2.205,1.08912793125072
589,2.209,1.09248991259539
590,2.212,1.09526766337463
591,2.216,1.09276078313027
592,2.219,1.09171979048642
593,2.223,1.09340343675223
594,2.227,1.09397173375678
595,2.230,1.09380708696107
596,2.234,1.09392393307416
597,2.237,1.09708940050137
598,2.241,1.10454630699096
599,2.244,1.1074143479485
600,2.248,1.10427543645608
601,2.252,1.10110465784192
602,2.255,1.09899611661943
603,2.259,1.09557571221822
604,2.262,1.08952095908564
605,2.266,1.08332811509215
606,2.270,1.08445939791429
607,2.273,1.0926545593911
608,2.277,1.09822599451046
609,2.280,1.09840126368009
610,2.284,1.0977108093755
611,2.288,1.0975567849537
612,2.291,1.09595280649227
613,2.295,1.09461438737875
614,2.298,1.09373804153061
615,2.302,1.09049290629903
616,2.305,1.08385392260103
617,2.309,1.07493112851091
618,2.313,1.07262607337097
619,2.316,1.08147451084366
620,2.320,1.0935733947349
621,2.323,1.0986933789628
622,2.327,1.09770018700158
623,2.331,1.0921181295083
624,2.334,1.08304131099639
625,2.338,1.08147451084366
626,2.341,1.09142236401675
627,2.345,1.10023362318074
628,2.349,1.09743462765366
629,2.352,1.08904826344635
630,2.356,1.08849058881571
631,2.359,1.09843313080184
632,2.363,1.1221104022624
633,2.366,1.20857652594517
634,2.370,1.52604741519668
635,2.374,2.49276310943016
636,2.377,5.02519016306566
637,2.381,10.6265591321266
638,2.384,20.3126717007159
639,2.388,33.1285605201522
640,2.392,46.9294567617066
641,2.395,60.2579972799287
642,2.399,72.2340971510634
643,2.402,82.1204255344236
644,2.406,90.080444831028
645,2.410,96.3576942076673
646,2.413,99.9145005123437
647,2.417,100
648,2.420,97.5011184031938
649,2.424,92.9980285405129
650,2.427,86.0922692327773
651,2.431,77.5134222989016
652,2.435,68.4613273622845
653,2.438,58.9114361168043
654,2.442,49.1900094661285
655,2.445,40.3086957461588
656,2.449,32.5521798890525
657,2.453,25.6816125061032
658,2.456,19.9412869526497
659,2.460,15.7955071925953
660,2.463,13.0846720578401
661,2.467,11.3675759365628
662,2.471,10.7714801794735
663,2.474,10.8697105822691
664,2.478,11.2611556834773
665,2.481,11.5053853045724
666,2.485,11.4624762251355
667,2.488,10.9794290824558
668,2.492,9.98346468164241
669,2.496,8.75081785640176
670,2.499,7.60207185154298
671,2.503,6.57551501384919
672,2.506,5.65143752851775
673,2.510,4.91570535510516
674,2.514,4.36501493532329
675,2.517,3.89140577186869
676,2.521,3.45002489087768
677,2.524,3.13691448611903
678,2.528,2.91545392351455
679,2.532,2.84242510283653
680,2.535,3.1403136457724
681,2.539,4.3725461984303
682,2.542,7.43181644240445
683,2.546,13.3070142774797
684,2.549,21.9728372089861
685,2.553,31.5331383809048
686,2.557,39.4962116100104
687,2.560,44.186887284875
688,2.564,44.5043050622569
689,2.567,40.2645863384693
690,2.571,33.1128606515031
691,2.575,25.2634096449987
692,2.578,18.0046369848859
693,2.582,12.0648604275835
694,2.585,7.9404794397845
695,2.589,5.46253985315524
696,2.592,4.03146177196174
697,2.596,3.21497300084666
698,2.600,2.80747218146329
699,2.603,2.66555195474784
700,2.607,2.76059033418148
701,2.610,3.22861744014279
702,2.614,4.23467840736411
703,2.618,5.8577718306647
704,2.621,8.03779100723633
705,2.625,10.3558585552307
706,2.628,12.025345196613
707,2.632,12.5164228539737
708,2.636,11.8616119250594
709,2.639,10.3159821635471
710,2.643,8.20897056290562
711,2.646,6.08143122466995
712,2.650,4.39577733018635
713,2.653,3.24841223393675
714,2.657,2.51604204186883
715,2.661,2.07335992007301
716,2.664,1.82050493135742
717,2.668,1.66418607679775
718,2.671,1.55703819109895
