#"+EI TIC Scan MBPR042_01_LQ1.d "
#Point,X(Minutes),Y(Counts)
0,0.101,0.134871956182512
1,0.108,0.124529256144421
2,0.114,0.113574033463728
3,0.121,0.101965878660541
4,0.127,0.0917188852853558
5,0.133,0.0836859060454071
6,0.140,0.0770630049722802
7,0.146,0.0708931154369105
8,0.153,0.0650613894438103
9,0.159,0.0600314726043931
10,0.166,0.0556800096642461
11,0.172,0.0524110954223078
12,0.179,0.0495845586444704
13,0.185,0.0473237545851467
14,0.192,0.0440952498231022
15,0.198,0.0411155823846145
16,0.205,0.0377275665177258
17,0.211,0.0356560489694838
18,0.218,0.0350711749183888
19,0.224,0.0336015459390919
20,0.230,0.0326551133836835
21,0.237,0.0324977290935707
22,0.243,0.0318937137098944
23,0.250,0.0302241641458595
24,0.256,0.0277400445397541
25,0.263,0.0249624245007356
26,0.269,0.0230163890216376
27,0.276,0.0228228488810934
28,0.282,0.0229100482850748
29,0.289,0.0237948032132768
30,0.295,0.0226420696289368
31,0.302,0.0221529022407482
32,0.308,0.0216531007789034
33,0.315,0.0209725200649019
34,0.321,0.0208810670314579
35,0.328,0.0211703138349086
36,0.334,0.0207449508886576
37,0.340,0.0195645687128113
38,0.347,0.0189265242934349
39,0.353,0.0185394440123466
40,0.360,0.0183097480213711
41,0.366,0.0180311352915767
42,0.373,0.0173186523566064
43,0.379,0.0164615460199108
44,0.386,0.0161850601048477
45,0.392,0.0165572526828173
46,0.399,0.0166338180131424
47,0.405,0.0163509516538856
48,0.412,0.0161744260311914
49,0.418,0.015293924732452
50,0.425,0.014600583130063
51,0.431,0.0139859336727304
52,0.437,0.0134840053961543
53,0.444,0.0141730933690808
54,0.450,0.0141943615163934
55,0.457,0.0134031864363667
56,0.463,0.0123653008475144
57,0.470,0.0121015758208388
58,0.476,0.0123482863296644
59,0.483,0.0132564362199101
60,0.489,0.0131564759275411
61,0.496,0.0126588012804275
62,0.502,0.0130309938583971
63,0.509,0.0129331603807594
64,0.515,0.0133946791774416
65,0.522,0.0132734507377601
66,0.528,0.0124822756577334
67,0.535,0.0115677453232939
68,0.541,0.011367824738556
69,0.547,0.0115549844349064
70,0.554,0.0117719195374944
71,0.560,0.0112274549662932
72,0.567,0.0105213524755166
73,0.573,0.0107957115758485
74,0.580,0.011259357187262
75,0.586,0.0109637299396176
76,0.593,0.0104320262568039
77,0.599,0.0102427397457223
78,0.606,0.0106255663973481
79,0.612,0.0101512867122783
80,0.619,0.010332065964435
81,0.625,0.00955577858752704
82,0.632,0.00908787934665102
83,0.638,0.00906235756987597
84,0.644,0.00871568676868146
85,0.651,0.0083668891527557
86,0.657,0.0081329395323177
87,0.664,0.00799044294532363
88,0.670,0.00786496087617961
89,0.677,0.00733751082282846
90,0.683,0.00721202875368444
91,0.690,0.00786496087617961
92,0.696,0.00794577983596729
93,0.703,0.00738642756164732
94,0.709,0.00665480329409573
95,0.716,0.00614224094386336
96,0.722,0.00622305990365104
97,0.729,0.00693341602389008
98,0.735,0.00777138102800441
99,0.742,0.00839879137372452
100,0.748,0.00824778752780544
101,0.754,0.00760123584950404
102,0.761,0.00746299289197249
103,0.767,0.0076076162936978
104,0.774,0.00807976916403633
105,0.780,0.00813931997651146
106,0.787,0.00762675762627909
107,0.793,0.00735027171121599
108,0.800,0.00732900356390345
109,0.806,0.00681644121367108
110,0.813,0.00672498818022713
111,0.819,0.00725881867777204
112,0.826,0.00778839554585445
113,0.832,0.00874546217491903
114,0.839,0.00881777387578168
115,0.845,0.00808827642296135
116,0.851,0.00718650697690939
117,0.858,0.0071950142358344
118,0.864,0.00757358725799773
119,0.871,0.00754806548122267
120,0.877,0.00708867349927167
121,0.884,0.0065952524816206
122,0.890,0.00621667945945728
123,0.897,0.00677603173377724
124,0.903,0.00739280800584108
125,0.910,0.0076969425124105
126,0.916,0.00755444592541644
127,0.923,0.00728221363981584
128,0.929,0.00660588655527687
129,0.936,0.00645062907989528
130,0.942,0.00669095914452706
131,0.949,0.00707165898142164
132,0.955,0.00681006076947732
133,0.961,0.00657398433430805
134,0.968,0.00642936093258274
135,0.974,0.00652081396602669
136,0.981,0.0058827695466503
137,0.987,0.0064825313008641
138,0.994,0.00599123709794429
139,1.000,0.00519580838845505
140,1.007,0.00502566320995468
141,1.013,0.00513413076124867
142,1.020,0.0056062836315872
143,1.026,0.00568922940610613
144,1.033,0.00607630968719447
145,1.039,0.00615074820278838
146,1.046,0.00602101250418185
147,1.052,0.0053297977165241
148,1.058,0.0051936815737238
149,1.065,0.00534043179018037
150,1.071,0.00575941429223753
151,1.078,0.00589553043503783
152,1.084,0.0061358604996696
153,1.091,0.00614011412913211
154,1.097,0.00636342967591385
155,1.104,0.00638682463795765
156,1.110,0.00613373368493835
157,1.117,0.00588702317611281
158,1.123,0.00522771060942387
159,1.130,0.00474492366542907
160,1.136,0.00455989078380992
161,1.143,0.00505331180146099
162,1.149,0.00594019354439417
163,1.156,0.00613160687020709
164,1.162,0.00587000865826277
165,1.168,0.00576366792170004
166,1.175,0.00601037843052558
167,1.181,0.00626346938354488
168,1.188,0.00600399798633181
169,1.194,0.00542975800889306
170,1.201,0.00506819950457978
171,1.207,0.00474067003596656
172,1.214,0.00488316662296062
173,1.220,0.00504693135726723
174,1.227,0.00507245313404229
175,1.233,0.00530002231028653
176,1.240,0.00506819950457978
177,1.246,0.00475555773908535
178,1.253,0.00416643005852782
179,1.259,0.00311578358128803
180,1.265,0.00336887453430733
181,1.272,0.00431743390444689
182,1.278,0.00507032631931103
183,1.285,0.00552759148653078
184,1.291,0.0051234966875924
185,1.298,0.0044578036767097
186,1.304,0.00395800221486486
187,1.311,0.00421321998261542
188,1.317,0.00405158206304007
189,1.324,0.00500014143317963
190,1.330,0.0057700483658938
191,1.337,0.00583385280783144
192,1.343,0.00584661369621897
193,1.350,0.00562117133470598
194,1.356,0.00458115893112247
195,1.363,0.00455351033961616
196,1.369,0.00446205730617221
197,1.375,0.00529789549555528
198,1.382,0.00522983742415513
199,1.388,0.00509372128135483
200,1.395,0.00507032631931103
201,1.401,0.0048938006966169
202,1.408,0.0044344087146659
203,1.414,0.00390908547604601
204,1.421,0.00333059186914475
205,1.427,0.00322212431785076
206,1.434,0.00441314056735335
207,1.440,0.00508734083716107
208,1.447,0.00557863504008089
209,1.453,0.0058593745846065
210,1.460,0.00550845015394948
211,1.466,0.00441952101154712
212,1.472,0.00432594116337191
213,1.479,0.00439187242004081
214,1.485,0.00452160811864734
215,1.492,0.00438336516111579
216,1.498,0.00422385405627169
217,1.505,0.00391546592023977
218,1.511,0.00378785703636449
219,1.518,0.00374106711227689
220,1.524,0.00414941554067778
221,1.531,0.00440676012315959
222,1.537,0.00416430324379656
223,1.544,0.00380274473948327
224,1.550,0.00368789674399552
225,1.557,0.0036325995609829
226,1.563,0.00391546592023977
227,1.570,0.00430679983079062
228,1.576,0.0043216875339094
229,1.582,0.00427277079509055
230,1.589,0.00418344457637785
231,1.595,0.00408773791347139
232,1.602,0.00394949495593984
233,1.608,0.004368477457997
234,1.615,0.00410687924605269
235,1.621,0.004251502647778
236,1.628,0.00371129170603932
237,1.634,0.00285843899880622
238,1.641,0.00269680107923087
239,1.647,0.00330081646290718
240,1.654,0.00355390741592648
241,1.660,0.00319872935580696
242,1.667,0.0034220449025887
243,1.673,0.00401967984207125
244,1.679,0.00351775156549515
245,1.686,0.00289246803450629
246,1.692,0.00247561234718039
247,1.699,0.0023905397579302
248,1.705,0.00244371012621157
249,1.712,0.00304985232461914
250,1.718,0.00365386770829545
251,1.725,0.00386867599615217
252,1.731,0.00361345822840161
253,1.738,0.003215743873657
254,1.744,0.00301156965945655
255,1.751,0.00289459484923755
256,1.757,0.0031498126169881
257,1.764,0.00362409230205788
258,1.770,0.0032625337977446
259,1.777,0.00305410595408164
260,1.783,0.00266489885826205
261,1.789,0.00226293087405492
262,1.796,0.00303921825096286
263,1.802,0.00371767215023309
264,1.809,0.00326678742720711
265,1.815,0.00300306240053153
266,1.822,0.00283929766622493
267,1.828,0.00271168878234965
268,1.835,0.00324126565043205
269,1.841,0.00304347188042537
270,1.848,0.00292862388493762
271,1.854,0.00237990568427393
272,1.861,0.00253941678911802
273,1.867,0.00255643130696806
274,1.874,0.00274784463278098
275,1.880,0.0034454398646325
276,1.886,0.00375382800066442
277,1.893,0.00365174089356419
278,1.899,0.00312854446967556
279,1.906,0.00314555898752559
280,1.912,0.00331357735129471
281,1.919,0.00340715719946991
282,1.925,0.00319022209688194
283,1.932,0.00351137112130139
284,1.938,0.00317746120849441
285,1.945,0.00321999750311951
286,1.951,0.00326891424193836
287,1.958,0.00321999750311951
288,1.964,0.00327316787140087
289,1.971,0.00300306240053153
290,1.977,0.00273083011493094
291,1.984,0.00306899365720043
292,1.990,0.00274997144751223
293,1.996,0.00245859782933035
294,2.003,0.00260534804578692
295,2.009,0.00286269262826873
296,2.016,0.0033561136459198
297,2.022,0.00302433054784408
298,2.029,0.00303496462150035
299,2.035,0.00262448937836821
300,2.042,0.0022501699856674
301,2.048,0.00210341976921083
302,2.055,0.00217785828480474
303,2.061,0.00232248168653005
304,2.068,0.00228207220663622
305,2.074,0.00238628612846769
306,2.081,0.00299242832687526
307,2.087,0.00344118623516999
308,2.093,0.00320298298526947
309,2.100,0.0026436307109495
310,2.106,0.00260534804578692
311,2.113,0.00287119988719375
312,2.119,0.00316682713483814
313,2.126,0.00335398683118855
314,2.132,0.00321787068838825
315,2.139,0.00285631218407496
316,2.145,0.00267340611718707
317,2.152,0.00288183396085002
318,2.158,0.00261172848998068
319,2.165,0.00230759398341127
320,2.171,0.00233949620438009
321,2.178,0.00248624642083666
322,2.184,0.0026202357489057
323,2.191,0.00247348553244913
324,2.197,0.00247135871771788
325,2.203,0.00273933737385596
326,2.210,0.00259258715739939
327,2.216,0.00227781857717371
328,2.223,0.0025266559007305
329,2.229,0.00277762003901854
330,2.236,0.00292649707020637
331,2.242,0.00259471397213065
332,2.249,0.00196092318221677
333,2.255,0.00231397442760503
334,2.262,0.00237565205481142
335,2.268,0.00211192702813584
336,2.275,0.0016546618609161
337,2.281,0.00106128055089606
338,2.288,0.00100598336788344
339,2.294,0.00189073829608536
340,2.300,0.00426426353616553
341,2.307,0.00987905442667774
342,2.313,0.02239323230538
343,2.320,0.0443164385551527
344,2.326,0.0718778306574814
345,2.333,0.0936925693559601
346,2.339,0.0993201211348598
347,2.346,0.0868144505150826
348,2.352,0.0628495021233055
349,2.359,0.0377445810355759
350,2.365,0.0189158902197787
351,2.372,0.00867102365932512
352,2.378,0.00394736814120859
353,2.385,0.00280526863052485
354,2.391,0.00241180790524275
355,2.398,0.00219061917319227
356,2.404,0.00238203249900518
357,2.410,0.00252878271546175
358,2.417,0.0039984116947587
359,2.423,0.0065016726334454
360,2.430,0.0138434370857364
361,2.436,0.0224697976357051
362,2.443,0.0279208237919107
363,2.449,0.0268148801316583
364,2.456,0.0210788608014646
365,2.462,0.0139306364897178
366,2.469,0.00838815730006825
367,2.475,0.00475981136854786
368,2.482,0.00362834593152039
369,2.488,0.00435358975487822
370,2.495,0.00552759148653078
371,2.501,0.00575516066277502
372,2.507,0.00516390616748624
373,2.514,0.00450033997133479
374,2.520,0.00370065763238305
375,2.527,0.00297966743848773
376,2.533,0.00256493856589308
377,2.540,0.00229270628029249
378,2.546,0.00230972079814253
379,2.553,0.00233098894545507
380,2.559,0.00250964138288046
381,2.566,0.00248624642083666
382,2.572,0.00215446332276094
383,2.579,0.00209916613974832
384,2.585,0.00257131901008684
385,2.592,0.00277336640955603
386,2.598,0.00255430449223681
387,2.605,0.00299668195633777
388,2.611,0.00348797615925759
389,2.617,0.00295201884698142
390,2.624,0.00237777886954267
391,2.630,0.0023671447958864
392,2.637,0.00299030151214401
393,2.643,0.00806488146091755
394,2.650,0.0301497256302656
395,2.656,0.0877034590727471
396,2.663,0.175855676053789
397,2.669,0.248652290675172
398,2.676,0.258520711028194
399,2.682,0.205058969128646
400,2.689,0.128140587558091
401,2.695,0.0631663975182624
402,2.702,0.0252708126367675
403,2.708,0.00919634689794501
404,2.714,0.00437698471692202
405,2.721,0.00326678742720711
406,2.727,0.00295839929117519
407,2.734,0.00314768580225685
408,2.740,0.00387292962561468
409,2.747,0.00629749841924495
410,2.753,0.0104086312947601
411,2.760,0.0158830524130096
412,2.766,0.0197134457439991
413,2.773,0.0189839482911788
414,2.779,0.0144963692082315
415,2.786,0.00986629353829022
416,2.792,0.00640596597053894
417,2.799,0.00468324603822269
418,2.805,0.00460455389316627
419,2.812,0.00476831862747287
420,2.818,0.00522558379469262
421,2.824,0.00516815979694874
422,2.831,0.00571262436814993
423,2.837,0.00535106586383664
424,2.844,0.00456839804273494
425,2.850,0.00626984982773864
426,2.857,0.0101406526386221
427,2.863,0.0153194465092271
428,2.870,0.0185947411953592
429,2.876,0.0184479909789026
430,2.883,0.0145070032818878
431,2.889,0.00928141948719519
432,2.896,0.00521920335049886
433,2.902,0.00321361705892574
434,2.909,0.00238628612846769
435,2.915,0.00271168878234965
436,2.921,0.00396863628852113
437,2.928,0.00494909787962952
438,2.934,0.00548505519190568
439,2.941,0.00472578233284778
440,2.947,0.0039984116947587
441,2.954,0.00334973320172604
442,2.960,0.00337100134903858
443,2.967,0.00343480579097622
444,2.973,0.00270318152342463
445,2.980,0.0021842387289985
446,2.986,0.00211830747232961
447,2.993,0.00155044793908462
448,2.999,0.00105702692143355
449,3.006,0.000678453899270226
450,3.012,0.000980461591108383
451,3.019,0.00136754187219673
452,3.025,0.00161212556629101
453,3.031,0.0023671447958864
454,3.038,0.00280101500106234
455,3.044,0.00233949620438009
456,3.051,0.00178652437425389
457,3.057,0.00119314306423385
458,3.064,0.000652932122495171
459,3.070,0.00118676262004008
460,3.077,0.00157384290112842
461,3.083,0.0020204739946919
462,3.090,0.00204599577146695
463,3.096,0.00242669560836153
464,3.103,0.00334547957226353
465,3.109,0.00578706288374384
466,3.116,0.0137923935321863
467,3.122,0.031923489116132
468,3.128,0.0601803496355809
469,3.135,0.0981950361420261
470,3.141,0.154457793042636
471,3.148,0.236423105970458
472,3.154,0.317565341597285
473,3.161,0.34944416760406
474,3.167,0.312329123728936
475,3.174,0.228728290272779
476,3.180,0.137228466904742
477,3.187,0.0676858788221785
478,3.193,0.0290352747110882
479,3.200,0.012295115961383
480,3.206,0.00615287501751964
481,3.213,0.00364110681990792
482,3.219,0.00219912643211728
483,3.226,0.00116762128745879
484,3.232,0.00147388260875946
485,3.238,0.00235225709276762
486,3.245,0.00341566445839493
487,3.251,0.00764802577359164
488,3.258,0.0214510533794342
489,3.264,0.0493463553945699
490,3.271,0.0868952694748703
491,3.277,0.117189618506861
492,3.284,0.122861833395117
493,3.290,0.100991797513626
494,3.297,0.0665501597556885
495,3.303,0.0368024021096301
496,3.310,0.0176653231578009
497,3.316,0.00784581954359832
498,3.323,0.00407285021035261
499,3.329,0.00339652312581364
500,3.335,0.00386867599615217
501,3.342,0.00450246678606605
502,3.348,0.00480660129263546
503,3.355,0.00414516191121527
504,3.361,0.0031264176549443
505,3.368,0.00255643130696806
506,3.374,0.00200771310630437
507,3.381,0.00150365801499702
508,3.387,0.00127821565348403
509,3.394,0.00175674896801632
510,3.400,0.00267340611718707
511,3.407,0.00588914999084406
512,3.413,0.0128438341620467
513,3.420,0.0229866136154
514,3.426,0.0319468840781758
515,3.433,0.0355709763802336
516,3.439,0.0325487726471208
517,3.445,0.024815674284279
518,3.452,0.0161255092923726
519,3.458,0.00917295193590121
520,3.465,0.00622305990365104
521,3.471,0.00468962648241645
522,3.478,0.0038856905140022
523,3.484,0.0039516217706711
524,3.491,0.00440463330842833
525,3.497,0.0055169574128745
526,3.504,0.00678241217797101
527,3.510,0.00853916114598733
528,3.517,0.0110147734931677
529,3.523,0.0129735698606532
530,3.530,0.013573331614867
531,3.536,0.0124503734367646
532,3.542,0.00971954332183365
533,3.549,0.00730348178712839
534,3.555,0.00678666580743352
535,3.562,0.00722478964207197
536,3.568,0.00726519912196581
537,3.575,0.00661014018473938
538,3.581,0.00518730112953004
539,3.588,0.00392184636443353
540,3.594,0.00290097529343131
541,3.601,0.00313279809913807
542,3.607,0.00355390741592648
543,3.614,0.00354114652753895
544,3.620,0.00272657648546843
545,3.627,0.00215020969329843
546,3.633,0.00212468791652337
547,3.639,0.00213106836071714
548,3.646,0.002413934719974
549,3.652,0.00332846505441349
550,3.659,0.00681431439893983
551,3.665,0.010925447274455
552,3.672,0.0146367389804943
553,3.678,0.0164870677966859
554,3.685,0.0154513090225649
555,3.691,0.0124461198073021
556,3.698,0.00922612230418257
557,3.704,0.00622093308891979
558,3.711,0.00485551803145431
559,3.717,0.00668670551506455
560,3.724,0.0158426429331157
561,3.730,0.0326189575332522
562,3.737,0.0554715818205832
563,3.743,0.0768162944634546
564,3.749,0.0867357583700262
565,3.756,0.0831116660679683
566,3.762,0.0720713707980256
567,3.769,0.0601186720083745
568,3.775,0.0488231589706812
569,3.782,0.0381401685755892
570,3.788,0.0284036107359055
571,3.795,0.0206854000761825
572,3.801,0.0150493410383577
573,3.808,0.0116230425063065
574,3.814,0.00926015133988265
575,3.821,0.00846259581566216
576,3.827,0.00862210692050626
577,3.834,0.00818185627113655
578,3.840,0.00856893655222489
579,3.846,0.00756720681380396
580,3.853,0.00672073455076462
581,3.859,0.00541912393523679
582,3.866,0.00383464696045209
583,3.872,0.00226718450351743
584,3.879,0.00166529593457237
585,3.885,0.00111445091917742
586,3.892,0.000961320258527092
587,3.898,0.000961320258527092
588,3.905,0.0004827869439948
589,3.911,0.00042748976098218
590,3.918,0.000146750216456569
591,3.924,0
592,3.931,0.000210554658394208
593,3.937,0.00100598336788344
594,3.944,0.00142283905520935
595,3.950,0.00156533564220341
596,3.956,0.00119739669369636
597,3.963,0.00103363195938975
598,3.969,0.00107404143928359
599,3.976,0.00140795135209056
600,3.982,0.00189924555501038
601,3.989,0.00229483309502374
602,3.995,0.00203536169781068
603,4.002,0.00136754187219673
604,4.008,0.001495150756072
605,4.015,0.00102299788573348
606,4.021,0.00088262811347067
607,4.028,0.000908149890245726
608,4.034,0.000846472263039342
609,4.041,0.000663566196151444
610,4.047,0.000606142198407569
611,4.053,0.000897515816589453
612,4.060,0.00118888943477134
613,4.066,0.00190137236974164
614,4.073,0.00264150389621825
615,4.079,0.0032859287597884
616,4.086,0.0043450824959532
617,4.092,0.00591254495288786
618,4.099,0.00770119614187301
619,4.105,0.00888795876191309
620,4.112,0.00968551428613357
621,4.118,0.00958342717903335
622,4.125,0.00890497327976312
623,4.131,0.00817760264167404
624,4.138,0.00704613720464658
625,4.144,0.00525110557146768
626,4.151,0.00417919094691534
627,4.157,0.00350499067710763
628,4.163,0.00282015633364364
629,4.170,0.0026202357489057
630,4.176,0.00314343217279434
631,4.183,0.00881777387578168
632,4.189,0.0592743265600665
633,4.196,0.387454600481043
634,4.202,1.76330593783278
635,4.209,5.58470709613862
636,4.215,13.0975418913381
637,4.222,24.1318629387007
638,4.228,36.7016931784757
639,4.235,48.3844864178421
640,4.241,58.0598643049665
641,4.248,65.8039668072279
642,4.254,71.5744150142911
643,4.260,75.6113730992391
644,4.267,79.0146169596035
645,4.273,82.3311548370041
646,4.280,85.1387629637333
647,4.286,87.5990197085541
648,4.293,90.3868399510237
649,4.299,93.2366866183157
650,4.306,95.5691643340826
651,4.312,97.4978705267503
652,4.319,99.1328210687372
653,4.325,100
654,4.332,96.1110512058295
655,4.338,78.8539403602867
656,4.345,47.7488410454826
657,4.351,18.3335577122875
